 PENELOPE (v. 2012)  Material data file ...............
 Material: Amorphous C                                                   
 Mass density = 2.26000000E+00 g/cm**3
 Number of elements in the molecule =  1
   atomic number =  6,  atoms/molecule = 1.00000000E+00
 Mean excitation energy = 8.10000000E+01 eV
 Number of oscillators =  3 (E/P inelastic model)
   1  2.00000000E+00  0.00000000E+00  1.76771555E+01   0  30
   2  2.00000000E+00  1.65900000E+01  4.28802894E+01   6   2
   3  2.00000000E+00  2.88000000E+02  7.01108071E+02   6   1
 Number of shells =  3 (Compton IA model)
   1  2.00000000E+00  0.00000000E+00  7.52131802E-01   0  30
   2  2.00000000E+00  1.65900000E+01  8.03154000E-01   6   2
   3  2.00000000E+00  2.88000000E+02  1.53080000E-01   6   1
 *** RELAX:  Z =  6,  no. of shells =  3,  no. of transitions =   8
   1 1s1/2 2  2.88000E+02  1.53080E-01
   2 2s1/2 2  1.65900E+01  8.03154E-01
   3 2p1/2 2  1.12600E+01  4.88373E-01
   1  3  0  5.61488E-04  2.82020E+02
   1  4  0  1.12060E-03  2.82030E+02
   1  2  2  4.13609E-01  2.55890E+02
   1  2  3  1.36190E-01  2.64460E+02
   1  2  4  2.71099E-01  2.64470E+02
   1  3  3  4.20748E-03  2.73030E+02
   1  3  4  1.10012E-01  2.73040E+02
   1  4  4  6.32008E-02  2.73050E+02
 *** Electron scaled bremss x-section,  ZEQ = 6.00000E+00,  NDATA =  57
 1.00E+03 5.33581E+00 5.38326E+00 5.42674E+00 5.46327E+00 5.49364E+00
          5.54034E+00 5.56926E+00 5.58355E+00 5.58464E+00 5.57472E+00
          5.55670E+00 5.53165E+00 5.50074E+00 5.46483E+00 5.42476E+00
          5.38181E+00 5.33745E+00 5.29513E+00 5.25846E+00 5.22872E+00
          5.20577E+00 5.19557E+00 5.18467E+00 5.17481E+00 5.16336E+00
          5.16027E+00 5.15781E+00 5.15749E+00 5.15726E+00 5.15723E+00
          5.15720E+00 5.15721E+00                                     4.681E+00
 1.50E+03 6.01569E+00 6.06910E+00 6.11605E+00 6.15163E+00 6.17724E+00
          6.20652E+00 6.20974E+00 6.19398E+00 6.16230E+00 6.11831E+00
          6.06656E+00 6.00762E+00 5.94113E+00 5.86830E+00 5.79350E+00
          5.72077E+00 5.65048E+00 5.58247E+00 5.51747E+00 5.45877E+00
          5.40457E+00 5.37536E+00 5.34686E+00 5.32684E+00 5.31182E+00
          5.30811E+00 5.30513E+00 5.30476E+00 5.30445E+00 5.30440E+00
          5.30440E+00 5.30434E+00                                     5.064E+00
 2.00E+03 6.49881E+00 6.55386E+00 6.60011E+00 6.63093E+00 6.64834E+00
          6.65456E+00 6.62861E+00 6.58168E+00 6.51804E+00 6.44205E+00
          6.35899E+00 6.26991E+00 6.17488E+00 6.07568E+00 5.97645E+00
          5.88119E+00 5.79013E+00 5.70266E+00 5.61891E+00 5.54174E+00
          5.47041E+00 5.43443E+00 5.40003E+00 5.37575E+00 5.35575E+00
          5.35091E+00 5.34706E+00 5.34658E+00 5.34619E+00 5.34613E+00
          5.34611E+00 5.34605E+00                                     5.285E+00
 3.00E+03 7.17821E+00 7.23037E+00 7.26980E+00 7.28701E+00 7.28526E+00
          7.24318E+00 7.16051E+00 7.05565E+00 6.93496E+00 6.80403E+00
          6.66935E+00 6.53267E+00 6.39460E+00 6.25723E+00 6.12295E+00
          5.99450E+00 5.87236E+00 5.75628E+00 5.64642E+00 5.54426E+00
          5.45258E+00 5.41178E+00 5.37382E+00 5.34606E+00 5.31869E+00
          5.31216E+00 5.30699E+00 5.30630E+00 5.30580E+00 5.30574E+00
          5.30569E+00 5.30567E+00                                     5.522E+00
 4.00E+03 7.65773E+00 7.70322E+00 7.73285E+00 7.73483E+00 7.71358E+00
          7.62554E+00 7.49186E+00 7.33686E+00 7.16858E+00 6.99347E+00
          6.81879E+00 6.64635E+00 6.47662E+00 6.31140E+00 6.15166E+00
          5.99910E+00 5.85429E+00 5.71726E+00 5.58825E+00 5.46805E+00
          5.36216E+00 5.31819E+00 5.27819E+00 5.24866E+00 5.21721E+00
          5.20979E+00 5.20396E+00 5.20316E+00 5.20260E+00 5.20254E+00
          5.20247E+00 5.20246E+00                                     5.638E+00
 5.00E+03 8.02742E+00 8.06467E+00 8.08347E+00 8.07014E+00 8.03020E+00
          7.89987E+00 7.72097E+00 7.52278E+00 7.31457E+00 7.10335E+00
          6.89677E+00 6.69629E+00 6.50191E+00 6.31475E+00 6.13502E+00
          5.96366E+00 5.80123E+00 5.64765E+00 5.50314E+00 5.36832E+00
          5.25042E+00 5.20279E+00 5.16017E+00 5.12902E+00 5.09533E+00
          5.08748E+00 5.08134E+00 5.08050E+00 5.07991E+00 5.07984E+00
          5.07977E+00 5.07977E+00                                     5.700E+00
 6.00E+03 8.32930E+00 8.35764E+00 8.36531E+00 8.33708E+00 8.27947E+00
          8.11038E+00 7.89119E+00 7.65538E+00 7.41318E+00 7.17183E+00
          6.93906E+00 6.71582E+00 6.50141E+00 6.29613E+00 6.09993E+00
          5.91323E+00 5.73641E+00 5.56915E+00 5.41143E+00 5.26408E+00
          5.13523E+00 5.08330E+00 5.03733E+00 5.00440E+00 4.96949E+00
          4.96149E+00 4.95528E+00 4.95444E+00 4.95384E+00 4.95376E+00
          4.95369E+00 4.95370E+00                                     5.735E+00
 8.00E+03 8.80276E+00 8.81258E+00 8.79818E+00 8.74184E+00 8.65196E+00
          8.41430E+00 8.12628E+00 7.82801E+00 7.53087E+00 7.24201E+00
          6.96866E+00 6.71046E+00 6.46491E+00 6.23083E+00 6.00851E+00
          5.79782E+00 5.59863E+00 5.40956E+00 5.22999E+00 5.06160E+00
          4.91279E+00 4.85102E+00 4.79688E+00 4.75995E+00 4.72433E+00
          4.71645E+00 4.71040E+00 4.70959E+00 4.70902E+00 4.70895E+00
          4.70889E+00 4.70887E+00                                     5.763E+00
 1.00E+04 9.16700E+00 9.15830E+00 9.12265E+00 9.04052E+00 8.92195E+00
          8.62540E+00 8.28047E+00 7.93224E+00 7.59242E+00 7.26756E+00
          6.96404E+00 6.67972E+00 6.41079E+00 6.15456E+00 5.91218E+00
          5.68327E+00 5.46707E+00 5.26107E+00 5.06390E+00 4.87834E+00
          4.71178E+00 4.63979E+00 4.57674E+00 4.53537E+00 4.49954E+00
          4.49187E+00 4.48608E+00 4.48533E+00 4.48479E+00 4.48473E+00
          4.48468E+00 4.48464E+00                                     5.765E+00
 1.50E+04 1.00955E+01 9.88972E+00 9.67935E+00 9.46202E+00 9.24398E+00
          8.82488E+00 8.42088E+00 8.03132E+00 7.65559E+00 7.29342E+00
          6.94509E+00 6.60935E+00 6.29013E+00 5.98633E+00 5.69934E+00
          5.42695E+00 5.16987E+00 4.92886E+00 4.70418E+00 4.49332E+00
          4.29893E+00 4.21392E+00 4.14356E+00 4.09793E+00 4.03295E+00
          4.01246E+00 4.01716E+00 4.02038E+00 4.01865E+00 4.01757E+00
          4.01950E+00 4.01826E+00                                     5.729E+00
 2.00E+04 1.02697E+01 1.01763E+01 1.00490E+01 9.86409E+00 9.63773E+00
          9.13492E+00 8.60536E+00 8.10537E+00 7.64322E+00 7.21887E+00
          6.83134E+00 6.47352E+00 6.13918E+00 5.82025E+00 5.52119E+00
          5.23970E+00 4.97297E+00 4.71561E+00 4.46451E+00 4.22416E+00
          3.99368E+00 3.88056E+00 3.77907E+00 3.71487E+00 3.67118E+00
          3.66247E+00 3.65613E+00 3.65543E+00 3.65488E+00 3.65477E+00
          3.65475E+00 3.65473E+00                                     5.696E+00
 3.00E+04 1.08761E+01 1.07107E+01 1.05099E+01 1.02494E+01 9.94939E+00
          9.31806E+00 8.68503E+00 8.10675E+00 7.58610E+00 7.11640E+00
          6.68700E+00 6.29340E+00 5.92744E+00 5.57930E+00 5.25292E+00
          4.94519E+00 4.65180E+00 4.36739E+00 4.08858E+00 3.81819E+00
          3.54894E+00 3.41069E+00 3.28388E+00 3.20113E+00 3.14389E+00
          3.13215E+00 3.12350E+00 3.12255E+00 3.12180E+00 3.12166E+00
          3.12163E+00 3.12164E+00                                     5.623E+00
 4.00E+04 1.14591E+01 1.10949E+01 1.07262E+01 1.03518E+01 9.98409E+00
          9.30162E+00 8.67069E+00 8.08580E+00 7.54350E+00 7.04133E+00
          6.57325E+00 6.14110E+00 5.74540E+00 5.37683E+00 5.03397E+00
          4.71191E+00 4.40578E+00 4.11319E+00 3.82867E+00 3.53890E+00
          3.23438E+00 3.08174E+00 2.94099E+00 2.84391E+00 2.76818E+00
          2.75948E+00 2.74561E+00 2.74324E+00 2.74271E+00 2.74257E+00
          2.74279E+00 2.74258E+00                                     5.555E+00
 5.00E+04 1.17213E+01 1.13130E+01 1.09010E+01 1.04855E+01 1.00798E+01
          9.33361E+00 8.65106E+00 8.02516E+00 7.45060E+00 6.92256E+00
          6.43612E+00 5.99107E+00 5.58728E+00 5.21238E+00 4.86271E+00
          4.53464E+00 4.22090E+00 3.91871E+00 3.62226E+00 3.31817E+00
          2.99699E+00 2.83502E+00 2.68424E+00 2.57770E+00 2.48874E+00
          2.47551E+00 2.45913E+00 2.45656E+00 2.45565E+00 2.45549E+00
          2.45557E+00 2.45540E+00                                     5.501E+00
 6.00E+04 1.19111E+01 1.14658E+01 1.10181E+01 1.05688E+01 1.01324E+01
          9.33560E+00 8.61260E+00 7.95532E+00 7.35683E+00 6.80941E+00
          6.30969E+00 5.85698E+00 5.44838E+00 5.07010E+00 4.71637E+00
          4.38480E+00 4.06660E+00 3.75839E+00 3.45417E+00 3.14071E+00
          2.80866E+00 2.64054E+00 2.48282E+00 2.36910E+00 2.26870E+00
          2.25109E+00 2.23246E+00 2.22975E+00 2.22846E+00 2.22827E+00
          2.22825E+00 2.22808E+00                                     5.454E+00
 8.00E+04 1.21544E+01 1.16519E+01 1.11491E+01 1.06490E+01 1.01672E+01
          9.29645E+00 8.51547E+00 7.81381E+00 7.18261E+00 6.61128E+00
          6.09626E+00 5.63900E+00 5.22833E+00 4.84822E+00 4.48775E+00
          4.14527E+00 3.81392E+00 3.49198E+00 3.17676E+00 2.85723E+00
          2.52399E+00 2.35339E+00 2.18513E+00 2.05632E+00 1.94047E+00
          1.91338E+00 1.89175E+00 1.88919E+00 1.88704E+00 1.88676E+00
          1.88655E+00 1.88646E+00                                     5.379E+00
 1.00E+05 1.23780E+01 1.18044E+01 1.12369E+01 1.06832E+01 1.01578E+01
          9.22218E+00 8.39994E+00 7.67268E+00 7.02582E+00 6.44576E+00
          5.92355E+00 5.46128E+00 5.04513E+00 4.65918E+00 4.29250E+00
          3.94449E+00 3.61108E+00 3.28765E+00 2.97114E+00 2.64991E+00
          2.31351E+00 2.14001E+00 1.96657E+00 1.83017E+00 1.70062E+00
          1.66933E+00 1.64436E+00 1.64137E+00 1.63884E+00 1.63853E+00
          1.63826E+00 1.63816E+00                                     5.323E+00
 1.50E+05 1.27842E+01 1.20627E+01 1.13636E+01 1.07071E+01 1.01018E+01
          9.04818E+00 8.15404E+00 7.38379E+00 6.70945E+00 6.11494E+00
          5.58788E+00 5.11873E+00 4.69452E+00 4.30016E+00 3.92508E+00
          3.56790E+00 3.23326E+00 2.91268E+00 2.60124E+00 2.28645E+00
          1.95584E+00 1.78258E+00 1.60350E+00 1.45574E+00 1.30706E+00
          1.26947E+00 1.23929E+00 1.23564E+00 1.23256E+00 1.23219E+00
          1.23185E+00 1.23178E+00                                     5.239E+00
 2.00E+05 1.31004E+01 1.22548E+01 1.14493E+01 1.07158E+01 1.00549E+01
          8.91841E+00 7.97110E+00 7.17022E+00 6.48067E+00 5.87742E+00
          5.34756E+00 4.87557E+00 4.44636E+00 4.04711E+00 3.66779E+00
          3.30616E+00 2.96944E+00 2.65412E+00 2.35041E+00 2.04567E+00
          1.72615E+00 1.55686E+00 1.37745E+00 1.22514E+00 1.06828E+00
          1.02766E+00 9.94920E-01 9.90960E-01 9.87630E-01 9.87210E-01
          9.86850E-01 9.86831E-01                                     5.209E+00
 3.00E+05 1.36521E+01 1.25921E+01 1.16112E+01 1.07682E+01 1.00411E+01
          8.80939E+00 7.79838E+00 6.94887E+00 6.23340E+00 5.61582E+00
          5.07318E+00 4.59002E+00 4.14906E+00 3.73926E+00 3.35480E+00
          2.99329E+00 2.65665E+00 2.34643E+00 2.04906E+00 1.75518E+00
          1.45334E+00 1.29258E+00 1.11963E+00 9.68885E-01 8.04723E-01
          7.61375E-01 7.26546E-01 7.21956E-01 7.18587E-01 7.18177E-01
          7.17818E-01 7.17758E-01                                     5.266E+00
 4.00E+05 1.41744E+01 1.29374E+01 1.18160E+01 1.08937E+01 1.01230E+01
          8.82011E+00 7.76587E+00 6.87929E+00 6.13954E+00 5.50880E+00
          4.95458E+00 4.45964E+00 4.00917E+00 3.59253E+00 3.20352E+00
          2.83851E+00 2.49723E+00 2.18139E+00 1.88706E+00 1.59867E+00
          1.30606E+00 1.15141E+00 9.83662E-01 8.34951E-01 6.67689E-01
          6.22776E-01 5.86803E-01 5.82093E-01 5.78603E-01 5.78163E-01
          5.77833E-01 5.77690E-01                                     5.411E+00
 5.00E+05 1.46532E+01 1.32726E+01 1.20400E+01 1.10592E+01 1.02583E+01
          8.89498E+00 7.80569E+00 6.89264E+00 6.13186E+00 5.48646E+00
          4.92045E+00 4.41385E+00 3.95294E+00 3.52796E+00 3.13260E+00
          2.76270E+00 2.41652E+00 2.09393E+00 1.79651E+00 1.51040E+00
          1.22221E+00 1.07031E+00 9.04421E-01 7.55775E-01 5.85811E-01
          5.39792E-01 5.02874E-01 4.98044E-01 4.94454E-01 4.94005E-01
          4.93674E-01 4.93478E-01                                     5.598E+00
 6.00E+05 1.50905E+01 1.35901E+01 1.22658E+01 1.12393E+01 1.04155E+01
          8.99995E+00 7.87940E+00 6.94818E+00 6.17121E+00 5.51154E+00
          4.93343E+00 4.41583E+00 3.94500E+00 3.51156E+00 3.10940E+00
          2.73397E+00 2.38243E+00 2.05302E+00 1.74833E+00 1.46198E+00
          1.17483E+00 1.02346E+00 8.57194E-01 7.07074E-01 5.33755E-01
          4.86608E-01 4.48641E-01 4.43671E-01 4.39991E-01 4.39522E-01
          4.39192E-01 4.38959E-01                                     5.804E+00
 8.00E+05 1.57894E+01 1.41708E+01 1.27520E+01 1.16679E+01 1.07974E+01
          9.25079E+00 8.03423E+00 7.06869E+00 6.28389E+00 5.62155E+00
          5.03445E+00 4.50310E+00 4.01756E+00 3.57000E+00 3.15314E+00
          2.76184E+00 2.39403E+00 2.04899E+00 1.72842E+00 1.43393E+00
          1.14222E+00 9.87740E-01 8.16847E-01 6.60733E-01 4.77350E-01
          4.27273E-01 3.86864E-01 3.81784E-01 3.77605E-01 3.77115E-01
          3.76635E-01 3.76525E-01                                     6.234E+00
 1.00E+06 1.63888E+01 1.46378E+01 1.31186E+01 1.19869E+01 1.10939E+01
          9.49194E+00 8.24247E+00 7.25869E+00 6.45937E+00 5.78142E+00
          5.17858E+00 4.63275E+00 4.13444E+00 3.67541E+00 3.24791E+00
          2.84615E+00 2.46699E+00 2.10778E+00 1.76862E+00 1.45477E+00
          1.15324E+00 9.93063E-01 8.14418E-01 6.49512E-01 4.53338E-01
          3.99469E-01 3.55910E-01 3.50420E-01 3.45921E-01 3.45381E-01
          3.44881E-01 3.44832E-01                                     6.654E+00
 1.50E+06 1.74613E+01 1.54999E+01 1.38242E+01 1.26238E+01 1.17046E+01
          1.00365E+01 8.76937E+00 7.75645E+00 6.92634E+00 6.21608E+00
          5.58293E+00 5.00954E+00 4.48637E+00 4.00448E+00 3.55501E+00
          3.13076E+00 2.72652E+00 2.33636E+00 1.95765E+00 1.59492E+00
          1.25125E+00 1.07096E+00 8.66131E-01 6.73557E-01 4.41105E-01
          3.77027E-01 3.25139E-01 3.18579E-01 3.13339E-01 3.12669E-01
          3.12087E-01 3.12063E-01                                     7.603E+00
 2.00E+06 1.81351E+01 1.60644E+01 1.43136E+01 1.30938E+01 1.21815E+01
          1.05111E+01 9.25330E+00 8.22484E+00 7.36934E+00 6.63126E+00
          5.97348E+00 5.37871E+00 4.83635E+00 4.33633E+00 3.86839E+00
          3.42440E+00 2.99933E+00 2.58737E+00 2.18337E+00 1.78386E+00
          1.38527E+00 1.17884E+00 9.42173E-01 7.19484E-01 4.52537E-01
          3.77531E-01 3.16584E-01 3.08905E-01 3.02855E-01 3.02054E-01
          3.01609E-01 3.01178E-01                                     8.408E+00
 3.00E+06 1.89941E+01 1.67898E+01 1.49555E+01 1.37345E+01 1.28650E+01
          1.12628E+01 1.00265E+01 8.99006E+00 8.10862E+00 7.33731E+00
          6.64617E+00 6.01959E+00 5.44734E+00 4.91959E+00 4.42606E+00
          3.95797E+00 3.50852E+00 3.06887E+00 2.62795E+00 2.17008E+00
          1.67508E+00 1.40511E+00 1.10598E+00 8.25036E-01 4.92032E-01
          3.96547E-01 3.16584E-01 3.05513E-01 2.96093E-01 2.94994E-01
          2.94897E-01 2.93134E-01                                     9.688E+00
 4.00E+06 1.95073E+01 1.72137E+01 1.53329E+01 1.41362E+01 1.33273E+01
          1.18194E+01 1.06144E+01 9.57877E+00 8.67937E+00 7.88522E+00
          7.17621E+00 6.53578E+00 5.94949E+00 5.40542E+00 4.89445E+00
          4.40836E+00 3.93987E+00 3.47916E+00 3.01335E+00 2.52257E+00
          1.96379E+00 1.63561E+00 1.26562E+00 9.26387E-01 5.34121E-01
          4.24215E-01 3.23488E-01 3.07459E-01 2.93349E-01 2.91897E-01
          2.91935E-01 2.89236E-01                                     1.066E+01
 5.00E+06 1.97232E+01 1.74247E+01 1.55661E+01 1.44338E+01 1.37005E+01
          1.22740E+01 1.10889E+01 1.00503E+01 9.13574E+00 8.32155E+00
          7.59332E+00 6.93775E+00 6.34298E+00 5.79684E+00 5.28576E+00
          4.79809E+00 4.32545E+00 3.85614E+00 3.37071E+00 2.83309E+00
          2.19811E+00 1.82774E+00 1.41123E+00 1.04006E+00 5.85494E-01
          4.48855E-01 3.30823E-01 3.11527E-01 2.91592E-01 2.89251E-01
          2.90398E-01 2.86615E-01                                     1.143E+01
 6.00E+06 1.99862E+01 1.76228E+01 1.57362E+01 1.46353E+01 1.39552E+01
          1.25818E+01 1.14269E+01 1.04057E+01 9.50051E+00 8.68925E+00
          7.95943E+00 7.29904E+00 6.69742E+00 6.14343E+00 5.62465E+00
          5.12986E+00 4.64999E+00 4.17193E+00 3.67330E+00 3.11152E+00
          2.43083E+00 2.02395E+00 1.55677E+00 1.13868E+00 6.31753E-01
          4.77830E-01 3.39757E-01 3.15817E-01 2.90396E-01 2.87382E-01
          2.88855E-01 2.84674E-01                                     1.206E+01
 8.00E+06 2.03245E+01 1.78662E+01 1.59453E+01 1.49057E+01 1.43177E+01
          1.30244E+01 1.19235E+01 1.09371E+01 1.00538E+01 9.25472E+00
          8.53001E+00 7.86955E+00 7.26429E+00 6.70460E+00 6.17953E+00
          5.67849E+00 5.19154E+00 4.70364E+00 4.18812E+00 3.59246E+00
          2.84358E+00 2.37997E+00 1.83009E+00 1.32333E+00 7.21586E-01
          5.34829E-01 3.57703E-01 3.24852E-01 2.88950E-01 2.84525E-01
          2.86387E-01 2.81992E-01                                     1.304E+01
 1.00E+07 2.05265E+01 1.80089E+01 1.60704E+01 1.50795E+01 1.45601E+01
          1.33282E+01 1.22718E+01 1.13169E+01 1.04560E+01 9.67237E+00
          8.95795E+00 8.30385E+00 7.70212E+00 7.14406E+00 6.61961E+00
          6.11854E+00 5.63040E+00 5.13890E+00 4.61447E+00 3.99754E+00
          3.20142E+00 2.69614E+00 2.08238E+00 1.49672E+00 8.06926E-01
          5.89307E-01 3.75077E-01 3.33983E-01 2.88469E-01 2.82652E-01
          2.84506E-01 2.80111E-01                                     1.378E+01
 1.50E+07 2.07867E+01 1.82018E+01 1.62496E+01 1.53303E+01 1.49109E+01
          1.37886E+01 1.28113E+01 1.19192E+01 1.11074E+01 1.03629E+01
          9.67972E+00 9.05079E+00 8.46957E+00 7.92848E+00 7.41824E+00
          6.92888E+00 6.44943E+00 5.96201E+00 5.43300E+00 4.79244E+00
          3.92993E+00 3.35884E+00 2.63501E+00 1.90485E+00 1.00122E+00
          7.13579E-01 4.15186E-01 3.56150E-01 2.89865E-01 2.80645E-01
          2.81156E-01 2.77525E-01                                     1.506E+01
 2.00E+07 2.09223E+01 1.83029E+01 1.63448E+01 1.54646E+01 1.51010E+01
          1.40488E+01 1.31237E+01 1.22763E+01 1.15028E+01 1.07920E+01
          1.01386E+01 9.53658E+00 8.97973E+00 8.46081E+00 7.97038E+00
          7.49826E+00 7.03351E+00 6.55773E+00 6.03562E+00 5.39205E+00
          4.50163E+00 3.89485E+00 3.10249E+00 2.26910E+00 1.17451E+00
          8.24830E-01 4.51494E-01 3.77097E-01 2.93238E-01 2.80842E-01
          2.78995E-01 2.76065E-01                                     1.591E+01
 3.00E+07 2.10447E+01 1.83801E+01 1.64118E+01 1.55774E+01 1.52803E+01
          1.43118E+01 1.34528E+01 1.26657E+01 1.19471E+01 1.12883E+01
          1.06843E+01 1.01296E+01 9.61813E+00 9.14248E+00 8.69218E+00
          8.25638E+00 7.82460E+00 7.37872E+00 6.88267E+00 6.25744E+00
          5.36028E+00 4.72385E+00 3.85677E+00 2.88843E+00 1.47533E+00
          1.01983E+00 5.15507E-01 4.15050E-01 3.01833E-01 2.83738E-01
          2.76238E-01 2.74338E-01                                     1.699E+01
 4.00E+07 2.10872E+01 1.84037E+01 1.64344E+01 1.56273E+01 1.53677E+01
          1.44468E+01 1.36270E+01 1.28778E+01 1.21959E+01 1.15733E+01
          1.10055E+01 1.04870E+01 1.00119E+01 9.57211E+00 9.15637E+00
          8.75312E+00 8.35246E+00 7.93689E+00 7.47076E+00 6.87411E+00
          5.99513E+00 5.35312E+00 4.45125E+00 3.40040E+00 1.75118E+00
          1.19078E+00 5.72387E-01 4.49615E-01 3.11525E-01 2.88359E-01
          2.74855E-01 2.73367E-01                                     1.768E+01
 5.00E+07 2.10941E+01 1.84122E+01 1.64513E+01 1.56634E+01 1.54259E+01
          1.45354E+01 1.37417E+01 1.30183E+01 1.23619E+01 1.17654E+01
          1.12243E+01 1.07334E+01 1.02867E+01 9.87574E+00 9.48856E+00
          9.11311E+00 8.73995E+00 8.35225E+00 7.91513E+00 7.34882E+00
          6.49643E+00 5.85906E+00 4.94184E+00 3.83740E+00 2.01041E+00
          1.34573E+00 6.24714E-01 4.81871E-01 3.21534E-01 2.93747E-01
          2.74324E-01 2.73073E-01                                     1.818E+01
 6.00E+07 2.10413E+01 1.83859E+01 1.64496E+01 1.56832E+01 1.54640E+01
          1.46009E+01 1.38271E+01 1.31206E+01 1.24786E+01 1.18959E+01
          1.13691E+01 1.08941E+01 1.04660E+01 1.00778E+01 9.71942E+00
          9.37893E+00 9.04297E+00 8.68587E+00 8.26754E+00 7.71882E+00
          6.89253E+00 6.26882E+00 5.35624E+00 4.22400E+00 2.24866E+00
          1.48558E+00 6.73408E-01 5.13180E-01 3.31295E-01 2.98417E-01
          2.74040E-01 2.72485E-01                                     1.855E+01
 8.00E+07 2.09902E+01 1.83747E+01 1.64704E+01 1.57232E+01 1.55161E+01
          1.46780E+01 1.39280E+01 1.32473E+01 1.26328E+01 1.20790E+01
          1.15825E+01 1.11390E+01 1.07435E+01 1.03887E+01 1.00632E+01
          9.75578E+00 9.45798E+00 9.15294E+00 8.80303E+00 8.31706E+00
          7.52617E+00 6.91412E+00 6.01607E+00 4.86272E+00 2.67922E+00
          1.76171E+00 7.62588E-01 5.69011E-01 3.50033E-01 3.09383E-01
          2.74699E-01 2.72105E-01                                     1.910E+01
 1.00E+08 2.09218E+01 1.83501E+01 1.64799E+01 1.57506E+01 1.55531E+01
          1.47359E+01 1.40032E+01 1.33395E+01 1.27417E+01 1.22050E+01
          1.17266E+01 1.13023E+01 1.09276E+01 1.05958E+01 1.02961E+01
          1.00176E+01 9.75271E+00 9.48547E+00 9.17888E+00 8.74056E+00
          7.99950E+00 7.41271E+00 6.53657E+00 5.37703E+00 3.05703E+00
          2.02141E+00 8.44150E-01 6.20508E-01 3.67852E-01 3.20037E-01
          2.76040E-01 2.71644E-01                                     1.949E+01
 1.50E+08 2.07671E+01 1.82929E+01 1.64951E+01 1.57970E+01 1.56104E+01
          1.48247E+01 1.41177E+01 1.34785E+01 1.29044E+01 1.23920E+01
          1.19385E+01 1.15413E+01 1.11966E+01 1.08991E+01 1.06394E+01
          1.04088E+01 1.02016E+01 1.00041E+01 9.78168E+00 9.44142E+00
          8.81081E+00 8.28434E+00 7.46822E+00 6.33106E+00 3.83626E+00
          2.59566E+00 1.02627E+00 7.35932E-01 4.08416E-01 3.44997E-01
          2.80026E-01 2.71603E-01                                     2.011E+01
 2.00E+08 2.05167E+01 1.81893E+01 1.64954E+01 1.58315E+01 1.56456E+01
          1.48816E+01 1.41887E+01 1.35608E+01 1.29966E+01 1.24942E+01
          1.20526E+01 1.16692E+01 1.13405E+01 1.10627E+01 1.08305E+01
          1.06376E+01 1.04744E+01 1.03182E+01 1.01325E+01 9.85305E+00
          9.33150E+00 8.86841E+00 8.10685E+00 7.00800E+00 4.46345E+00
          3.07215E+00 1.18736E+00 8.39837E-01 4.44859E-01 3.68082E-01
          2.84921E-01 2.71191E-01                                     2.048E+01
 3.00E+08 1.99578E+01 1.79677E+01 1.65028E+01 1.58919E+01 1.56785E+01
          1.49346E+01 1.42583E+01 1.36451E+01 1.30942E+01 1.26043E+01
          1.21754E+01 1.18066E+01 1.14966E+01 1.12426E+01 1.10396E+01
          1.08818E+01 1.07627E+01 1.06639E+01 1.05544E+01 1.03757E+01
          9.99334E+00 9.61956E+00 8.95171E+00 7.92904E+00 5.39536E+00
          3.86424E+00 1.47419E+00 1.02394E+00 5.09592E-01 4.08869E-01
          2.96199E-01 2.70870E-01                                     2.091E+01
 4.00E+08 1.94797E+01 1.77748E+01 1.65017E+01 1.59310E+01 1.56891E+01
          1.49539E+01 1.42857E+01 1.36805E+01 1.31379E+01 1.26565E+01
          1.22364E+01 1.18773E+01 1.15782E+01 1.13369E+01 1.11492E+01
          1.10106E+01 1.09165E+01 1.08512E+01 1.07884E+01 1.06771E+01
          1.03945E+01 1.00871E+01 9.49838E+00 8.55253E+00 6.08332E+00
          4.48426E+00 1.72637E+00 1.18812E+00 5.66765E-01 4.45506E-01
          3.06972E-01 2.70828E-01                                     2.115E+01
 5.00E+08 1.91343E+01 1.76368E+01 1.65026E+01 1.59603E+01 1.56963E+01
          1.49648E+01 1.42997E+01 1.36988E+01 1.31617E+01 1.26869E+01
          1.22745E+01 1.19234E+01 1.16318E+01 1.13975E+01 1.12181E+01
          1.10910E+01 1.10125E+01 1.09691E+01 1.09381E+01 1.08775E+01
          1.06676E+01 1.04054E+01 9.88415E+00 9.02243E+00 6.63285E+00
          4.97963E+00 1.95200E+00 1.34070E+00 6.19653E-01 4.77931E-01
          3.18170E-01 2.70592E-01                                     2.131E+01
 6.00E+08 1.88984E+01 1.75431E+01 1.65048E+01 1.59823E+01 1.57036E+01
          1.49755E+01 1.43136E+01 1.37163E+01 1.31827E+01 1.27112E+01
          1.23020E+01 1.19545E+01 1.16679E+01 1.14406E+01 1.12691E+01
          1.11503E+01 1.10820E+01 1.10528E+01 1.10436E+01 1.10162E+01
          1.08656E+01 1.06508E+01 1.01864E+01 9.37318E+00 7.05645E+00
          5.42110E+00 2.18361E+00 1.47863E+00 6.68363E-01 5.09608E-01
          3.28253E-01 2.70879E-01                                     2.143E+01
 8.00E+08 1.85948E+01 1.74202E+01 1.65033E+01 1.60058E+01 1.57083E+01
          1.49853E+01 1.43281E+01 1.37353E+01 1.32061E+01 1.27397E+01
          1.23362E+01 1.19949E+01 1.17141E+01 1.14927E+01 1.13288E+01
          1.12214E+01 1.11688E+01 1.11603E+01 1.11797E+01 1.11989E+01
          1.11286E+01 1.09753E+01 1.06024E+01 9.90313E+00 7.74221E+00
          6.09875E+00 2.63221E+00 1.73450E+00 7.58556E-01 5.65466E-01
          3.48552E-01 2.71469E-01                                     2.159E+01
 1.00E+09 1.84041E+01 1.73453E+01 1.65061E+01 1.60250E+01 1.57160E+01
          1.49958E+01 1.43410E+01 1.37506E+01 1.32238E+01 1.27598E+01
          1.23586E+01 1.20202E+01 1.17435E+01 1.15277E+01 1.13704E+01
          1.12696E+01 1.12248E+01 1.12280E+01 1.12658E+01 1.13135E+01
          1.12969E+01 1.11936E+01 1.08971E+01 1.02774E+01 8.22872E+00
          6.64365E+00 3.02774E+00 1.96216E+00 8.40500E-01 6.18214E-01
          3.66241E-01 2.70530E-01                                     2.170E+01
 1.50E+09 1.81131E+01 1.72295E+01 1.65079E+01 1.60511E+01 1.57239E+01
          1.50078E+01 1.43566E+01 1.37696E+01 1.32463E+01 1.27862E+01
          1.23898E+01 1.20562E+01 1.17843E+01 1.15733E+01 1.14227E+01
          1.13321E+01 1.13012E+01 1.13219E+01 1.13833E+01 1.14720E+01
          1.15388E+01 1.15092E+01 1.13273E+01 1.08601E+01 9.09970E+00
          7.61503E+00 3.82829E+00 2.49272E+00 1.02451E+00 7.34214E-01
          4.08262E-01 2.70547E-01                                     2.186E+01
 2.00E+09 1.79757E+01 1.71813E+01 1.65177E+01 1.60682E+01 1.57263E+01
          1.50077E+01 1.43574E+01 1.37732E+01 1.32536E+01 1.27976E+01
          1.24047E+01 1.20743E+01 1.18062E+01 1.15988E+01 1.14489E+01
          1.13550E+01 1.13232E+01 1.13593E+01 1.14606E+01 1.15895E+01
          1.16768E+01 1.16678E+01 1.15523E+01 1.12090E+01 9.67427E+00
          8.24875E+00 4.46186E+00 3.01304E+00 1.18752E+00 8.37478E-01
          4.45149E-01 2.70557E-01                                     2.195E+01
 3.00E+09 1.77913E+01 1.71031E+01 1.65109E+01 1.60761E+01 1.57231E+01
          1.50071E+01 1.43591E+01 1.37770E+01 1.32596E+01 1.28057E+01
          1.24150E+01 1.20872E+01 1.18220E+01 1.16180E+01 1.14723E+01
          1.13838E+01 1.13593E+01 1.14055E+01 1.15215E+01 1.16725E+01
          1.18023E+01 1.18367E+01 1.18064E+01 1.15973E+01 1.03729E+01
          9.11918E+00 5.41479E+00 3.82792E+00 1.47353E+00 1.02090E+00
          5.08692E-01 2.69480E-01                                     2.204E+01
 4.00E+09 1.77024E+01 1.70697E+01 1.65145E+01 1.60873E+01 1.57283E+01
          1.50132E+01 1.43662E+01 1.37848E+01 1.32681E+01 1.28152E+01
          1.24255E+01 1.20988E+01 1.18351E+01 1.16329E+01 1.14893E+01
          1.14038E+01 1.13832E+01 1.14347E+01 1.15582E+01 1.17204E+01
          1.18718E+01 1.19291E+01 1.19454E+01 1.18164E+01 1.08101E+01
          9.69269E+00 6.12264E+00 4.47204E+00 1.72534E+00 1.18583E+00
          5.67429E-01 2.73460E-01                                     2.210E+01
 5.00E+09 1.76138E+01 1.70256E+01 1.65022E+01 1.60856E+01 1.57268E+01
          1.50169E+01 1.43711E+01 1.37897E+01 1.32718E+01 1.28175E+01
          1.24268E+01 1.20999E+01 1.18367E+01 1.16369E+01 1.14992E+01
          1.14227E+01 1.14100E+01 1.14574E+01 1.15609E+01 1.17167E+01
          1.19037E+01 1.19887E+01 1.20352E+01 1.19505E+01 1.11066E+01
          1.00973E+01 6.66827E+00 4.98613E+00 1.97998E+00 1.33631E+00
          6.22964E-01 2.73401E-01                                     2.213E+01
 6.00E+09 1.75781E+01 1.70136E+01 1.65060E+01 1.60923E+01 1.57307E+01
          1.50208E+01 1.43755E+01 1.37943E+01 1.32770E+01 1.28233E+01
          1.24338E+01 1.21079E+01 1.18449E+01 1.16444E+01 1.15063E+01
          1.14315E+01 1.14219E+01 1.14723E+01 1.15779E+01 1.17361E+01
          1.19349E+01 1.20351E+01 1.20994E+01 1.20326E+01 1.13103E+01
          1.04515E+01 7.11138E+00 5.40035E+00 2.28366E+00 1.48579E+00
          6.66099E-01 2.73472E-01                                     2.216E+01
 8.00E+09 1.75217E+01 1.69896E+01 1.65037E+01 1.60946E+01 1.57296E+01
          1.50205E+01 1.43757E+01 1.37951E+01 1.32782E+01 1.28251E+01
          1.24360E+01 1.21108E+01 1.18485E+01 1.16490E+01 1.15120E+01
          1.14385E+01 1.14307E+01 1.14838E+01 1.15934E+01 1.17584E+01
          1.19700E+01 1.20818E+01 1.21698E+01 1.21519E+01 1.16075E+01
          1.08770E+01 7.79282E+00 6.10287E+00 2.79851E+00 1.82331E+00
          7.61700E-01 2.73431E-01                                     2.219E+01
 1.00E+10 1.74874E+01 1.69755E+01 1.65032E+01 1.60972E+01 1.57305E+01
          1.50221E+01 1.43776E+01 1.37971E+01 1.32801E+01 1.28270E+01
          1.24379E+01 1.21128E+01 1.18507E+01 1.16514E+01 1.15151E+01
          1.14424E+01 1.14357E+01 1.14907E+01 1.16027E+01 1.17717E+01
          1.19913E+01 1.21111E+01 1.22141E+01 1.22260E+01 1.17971E+01
          1.11602E+01 8.29997E+00 6.65193E+00 3.21985E+00 2.13968E+00
          8.38762E-01 2.65592E-01                                     2.221E+01
 *** Bremss angular distribution,  ZEQ = 6.00000E+00,  NDATA =  24
 1 1  1.000E+03  0.000E+00  2.4356072E-01 -2.1847058E-02
