 PENELOPE (v. 2012)  Material data file ...............
 Material: Orthoclase                                                    
 Mass density = 2.56000000E+00 g/cm**3
 Number of elements in the molecule =  4
   atomic number = 19,  atoms/molecule = 1.25011858E-01
   atomic number = 13,  atoms/molecule = 1.24933546E-01
   atomic number = 14,  atoms/molecule = 3.74931525E-01
   atomic number =  8,  atoms/molecule = 1.00000000E+00
 Mean excitation energy = 1.32197208E+02 eV
 Number of oscillators = 15 (E/P inelastic model)
   1  1.24967555E+00  0.00000000E+00  8.73849521E+00   0  30
   2  7.74995792E+00  1.86949882E+01  3.95858528E+01   0  30
   3  2.49867093E-01  7.70000000E+01  1.69178561E+02  13   3
   4  4.99734185E-01  7.70000000E+01  1.69208641E+02  13   4
   5  7.49863050E-01  1.04000000E+02  2.28527123E+02  14   3
   6  1.49972610E+00  1.04000000E+02  2.28593947E+02  14   4
   7  2.49867093E-01  1.21000000E+02  2.65823894E+02  13   2
   8  7.49863050E-01  1.54000000E+02  3.38342097E+02  14   2
   9  5.00047433E-01  2.96000000E+02  6.50248765E+02  19   4
  10  2.50023716E-01  2.99000000E+02  6.56831055E+02  19   3
  11  2.50023716E-01  3.81000000E+02  8.36961530E+02  19   2
  12  2.00000000E+00  5.38000000E+02  1.18187707E+03   8   1
  13  2.49867093E-01  1.56400000E+03  3.43569260E+03  13   1
  14  7.49863050E-01  1.84400000E+03  4.05078025E+03  14   1
  15  2.50023716E-01  3.61000000E+03  7.93020840E+03  19   1
 Number of shells = 15 (Compton IA model)
   1  1.24967555E+00  0.00000000E+00  1.52149203E+00   0  30
   2  7.74995792E+00  1.86949882E+01  4.84410734E-01   0  30
   3  4.99734185E-01  7.70000000E+01  1.67604000E-01  13   4
   4  2.49867093E-01  7.70000000E+01  1.67061000E-01  13   3
   5  1.49972610E+00  1.04000000E+02  1.49030000E-01  14   4
   6  7.49863050E-01  1.04000000E+02  1.48493000E-01  14   3
   7  2.49867093E-01  1.21000000E+02  3.03886000E-01  13   2
   8  7.49863050E-01  1.54000000E+02  2.74105000E-01  14   2
   9  5.00047433E-01  2.96000000E+02  9.64819000E-02  19   4
  10  2.50023716E-01  2.99000000E+02  9.58954000E-02  19   3
  11  2.50023716E-01  3.81000000E+02  1.84412000E-01  19   2
  12  2.00000000E+00  5.38000000E+02  1.13183000E-01   8   1
  13  2.49867093E-01  1.56400000E+03  6.83322000E-02  13   1
  14  7.49863050E-01  1.84400000E+03  6.32596000E-02  14   1
  15  2.50023716E-01  3.61000000E+03  4.60230000E-02  19   1
 *** RELAX:  Z = 19,  no. of shells =  8,  no. of transitions =  72
   1 1s1/2 2  3.61000E+03  4.60230E-02
   2 2s1/2 2  3.81000E+02  1.84412E-01
   3 2p1/2 2  2.99000E+02  9.58954E-02
   4 2p3/2 4  2.96000E+02  9.64819E-02
   5 3s1/2 2  3.70000E+01  5.67766E-01
   6 3p1/2 2  1.90000E+01  3.74525E-01
   7 3p3/2 4  1.87000E+01  3.76666E-01
  10 4s1/2 1  4.34100E+00  2.44866E+00
   1  3  0  4.18599E-02  3.31120E+03
   1  4  0  8.26518E-02  3.31395E+03
   1  6  0  3.99739E-03  3.58963E+03
   1  7  0  7.91008E-03  3.58963E+03
   1  2  2  5.89630E-02  2.84098E+03
   1  2  3  6.48009E-02  2.91049E+03
   1  2  4  1.23626E-01  2.91350E+03
   1  2  5  1.41070E-02  3.17164E+03
   1  2  6  6.89276E-03  3.18839E+03
   1  2  7  1.31233E-02  3.18867E+03
   1  2 10  6.86507E-04  3.20792E+03
   1  3  3  1.16788E-02  2.98000E+03
   1  3  4  2.89645E-01  2.98301E+03
   1  3  5  6.75386E-03  3.24115E+03
   1  3  6  2.38084E-03  3.25790E+03
   1  3  7  2.72851E-02  3.25818E+03
   1  3 10  3.25392E-04  3.27743E+03
   1  4  4  1.63935E-01  2.98602E+03
   1  4  5  1.29199E-02  3.24416E+03
   1  4  6  2.72613E-02  3.26091E+03
   1  4  7  3.12637E-02  3.26119E+03
   1  4 10  6.19017E-04  3.28044E+03
   1  5  5  8.33295E-04  3.50230E+03
   1  5  6  7.22188E-04  3.51905E+03
   1  5  7  1.37698E-03  3.51933E+03
   1  5 10  8.33295E-05  3.53858E+03
   1  6  6  1.19046E-04  3.53580E+03
   1  6  7  2.58323E-03  3.53608E+03
   1  6 10  3.57137E-05  3.55533E+03
   1  7  7  1.49204E-03  3.53636E+03
   1  7 10  6.74576E-05  3.55561E+03
   2  3  0  1.11190E-04  6.95100E+01
   2  4  0  3.14070E-04  7.25200E+01
   2  6  0  1.47230E-04  3.61810E+02
   2  7  0  2.25400E-04  3.61520E+02
   2  3 10  6.32995E-03  6.52900E+01
   2  4 10  1.22536E-02  6.83000E+01
   2  5  5  1.09421E-02  2.90160E+02
   2  5  6  1.84072E-02  3.06910E+02
   2  5  7  3.64059E-02  3.07190E+02
   2  5 10  9.71733E-04  3.26440E+02
   2  6  6  4.43715E-04  3.23660E+02
   2  6  7  1.62172E-04  3.23940E+02
   2  6 10  7.22612E-04  3.43190E+02
   2  7  7  1.00934E-03  3.24220E+02
   2  7 10  1.42836E-03  3.43470E+02
   3  5  0  8.35413E-04  2.62450E+02
   3  7  0  4.81412E-07  2.79520E+02
   3 10  0  2.03921E-05  2.97430E+02
   3  5  5  1.14174E-02  2.20650E+02
   3  5  6  2.07641E-01  2.37400E+02
   3  5  7  1.48840E-02  2.37680E+02
   3  5 10  9.88199E-04  2.56930E+02
   3  6  6  1.62162E-01  2.54150E+02
   3  6  7  5.74928E-01  2.54430E+02
   3  6 10  1.03231E-02  2.73680E+02
   3  7  7  1.61615E-02  2.54710E+02
   3  7 10  6.38519E-04  2.73960E+02
   4  5  0  7.89471E-04  2.59703E+02
   4  6  0  2.24120E-07  2.77180E+02
   4  7  0  2.20150E-07  2.76900E+02
   4 10  0  1.92520E-05  2.94420E+02
   4  5  5  1.12219E-02  2.17640E+02
   4  5  6  7.18101E-03  2.34390E+02
   4  5  7  2.13721E-01  2.34670E+02
   4  5 10  9.76484E-04  2.53920E+02
   4  6  6  2.71897E-03  2.51140E+02
   4  6  7  2.99761E-01  2.51420E+02
   4  6 10  3.00446E-04  2.70670E+02
   4  7  7  4.52595E-01  2.51700E+02
   4  7 10  1.07157E-02  2.70950E+02
   2 30 30  9.10126E-01  4.00274E+01
 *** RELAX:  Z = 13,  no. of shells =  6,  no. of transitions =  40
   1 1s1/2 2  1.56400E+03  6.83322E-02
   2 2s1/2 2  1.21000E+02  3.03886E-01
   3 2p1/2 2  7.70000E+01  1.67061E-01
   4 2p3/2 4  7.70000E+01  1.67604E-01
   5 3s1/2 2  9.07500E+00  1.23808E+00
   6 3p1/2 1  9.07500E+00  9.18119E-01
   1  3  0  1.23699E-02  1.48630E+03
   1  4  0  2.45528E-02  1.48671E+03
   1  6  0  7.55854E-05  1.55757E+03
   1  7  0  1.50039E-04  1.55757E+03
   1  2  2  7.83944E-02  1.31180E+03
   1  2  3  8.32180E-02  1.34965E+03
   1  2  4  1.62725E-01  1.35012E+03
   1  2  5  1.35884E-02  1.42069E+03
   1  2  6  8.96794E-04  1.42597E+03
   1  2  7  1.76485E-03  1.42598E+03
   1  3  3  1.42920E-02  1.38750E+03
   1  3  4  3.66942E-01  1.38797E+03
   1  3  5  6.49294E-03  1.45854E+03
   1  3  6  3.01318E-04  1.46382E+03
   1  3  7  3.65883E-03  1.46383E+03
   1  4  4  2.09226E-01  1.38844E+03
   1  4  5  1.27063E-02  1.45901E+03
   1  4  6  3.65189E-03  1.46429E+03
   1  4  7  4.20421E-03  1.46430E+03
   1  5  5  5.81139E-04  1.52958E+03
   1  5  6  7.17440E-05  1.53486E+03
   1  5  7  1.36311E-04  1.53487E+03
   2  6  0  2.07691E-06  1.22300E+02
   2  7  0  4.02982E-06  1.14180E+02
   2  5  5  1.12532E-02  9.87300E+01
   2  5  6  2.61944E-03  1.04010E+02
   2  5  7  5.21749E-03  1.04020E+02
   3  5  0  1.60531E-05  7.10400E+01
   3  7  0  1.75611E-10  7.63300E+01
   3  5  5  1.50408E-01  6.08800E+01
   3  5  6  8.00076E-01  6.61600E+01
   3  5  7  4.94996E-02  6.61700E+01
   4  5  0  1.49999E-05  7.05700E+01
   4  6  0  8.20316E-11  7.58500E+01
   4  7  0  8.10126E-11  7.58600E+01
   4  5  5  1.44757E-01  6.04100E+01
   4  5  6  2.47625E-02  6.56900E+01
   4  5  7  8.30465E-01  6.57000E+01
   2 30  0  2.49536E-04  3.81712E+01
   2 30 30  9.80654E-01  2.85014E+01
 *** RELAX:  Z = 14,  no. of shells =  6,  no. of transitions =  51
   1 1s1/2 2  1.84400E+03  6.32596E-02
   2 2s1/2 2  1.54000E+02  2.74105E-01
   3 2p1/2 2  1.04000E+02  1.48493E-01
   4 2p3/2 4  1.04000E+02  1.49030E-01
   5 3s1/2 2  1.34600E+01  1.03443E+00
   6 3p1/2 2  8.15100E+00  7.43235E-01
   1  3  0  1.59791E-02  1.73939E+03
   1  4  0  3.17052E-02  1.73998E+03
   1  6  0  2.72402E-04  1.83596E+03
   1  7  0  5.40444E-04  1.83596E+03
   1  2  2  7.47954E-02  1.52540E+03
   1  2  3  8.01214E-02  1.56828E+03
   1  2  4  1.56131E-01  1.56897E+03
   1  2  5  1.41124E-02  1.66332E+03
   1  2  6  1.95584E-03  1.67040E+03
   1  2  7  3.81585E-03  1.67043E+03
   1  3  3  1.39905E-02  1.61116E+03
   1  3  4  3.56408E-01  1.61185E+03
   1  3  5  6.76231E-03  1.70620E+03
   1  3  6  6.64732E-04  1.71328E+03
   1  3  7  7.97675E-03  1.71331E+03
   1  4  4  2.03104E-01  1.61254E+03
   1  4  5  1.31982E-02  1.70689E+03
   1  4  6  7.96407E-03  1.71397E+03
   1  4  7  9.16547E-03  1.71400E+03
   1  5  5  6.64748E-04  1.80124E+03
   1  5  6  1.66185E-04  1.80832E+03
   1  5  7  3.25975E-04  1.80835E+03
   1  6  6  6.39199E-06  1.81540E+03
   1  6  7  1.08669E-04  1.81543E+03
   1  7  7  6.39185E-05  1.81546E+03
   2  6  0  5.83271E-06  1.55240E+02
   2  7  0  1.07340E-05  1.45030E+02
   2  5  5  1.03158E-02  1.24290E+02
   2  5  6  5.00684E-03  1.31370E+02
   2  5  7  9.95440E-03  1.31400E+02
   2  6  6  3.23120E-05  1.38450E+02
   2  7  7  6.62381E-05  1.38510E+02
   3  5  0  4.72000E-05  9.50400E+01
   3  7  0  1.82830E-09  1.02150E+02
   3  5  5  6.76285E-02  8.14100E+01
   3  5  6  5.54847E-01  8.84900E+01
   3  5  7  3.51351E-02  8.85200E+01
   3  6  6  7.24466E-02  9.55700E+01
   3  6  7  2.62434E-01  9.56000E+01
   3  7  7  7.46220E-03  9.56300E+01
   4  5  0  4.42068E-05  9.43500E+01
   4  6  0  8.54246E-10  1.00630E+02
   4  7  0  8.43116E-10  1.01460E+02
   4  5  5  6.56816E-02  8.07200E+01
   4  5  6  1.73500E-02  8.78000E+01
   4  5  7  5.73636E-01  8.78300E+01
   4  6  6  1.08438E-03  9.48800E+01
   4  6  7  1.37565E-01  9.49100E+01
   4  7  7  2.04639E-01  9.49400E+01
   2 30  0  3.26940E-04  4.33570E+01
   2 30 30  9.74281E-01  3.11037E+01
 *** RELAX:  Z =  8,  no. of shells =  4,  no. of transitions =   8
   1 1s1/2 2  5.38000E+02  1.13183E-01
   2 2s1/2 2  2.84800E+01  5.77977E-01
   3 2p1/2 2  1.36200E+01  3.49407E-01
   4 2p3/2 2  1.36200E+01  3.49884E-01
   1  3  0  1.90768E-03  5.23090E+02
   1  4  0  3.80027E-03  5.23130E+02
   1  2  2  1.78644E-01  4.78820E+02
   1  2  3  1.16224E-01  4.93860E+02
   1  2  4  2.30418E-01  4.93900E+02
   1  3  3  1.10822E-02  5.08900E+02
   1  3  4  2.91115E-01  5.08940E+02
   1  4  4  1.66809E-01  5.08980E+02
 *** Electron scaled bremss x-section,  ZEQ = 1.11974E+01,  NDATA =  57
 1.00E+03 6.08753E+00 6.14834E+00 6.20644E+00 6.25972E+00 6.30869E+00
          6.39622E+00 6.46911E+00 6.52809E+00 6.57442E+00 6.61071E+00
          6.64062E+00 6.66538E+00 6.68606E+00 6.70383E+00 6.72080E+00
          6.73865E+00 6.75692E+00 6.77411E+00 6.78897E+00 6.80285E+00
          6.81659E+00 6.82273E+00 6.82818E+00 6.83184E+00 6.83508E+00
          6.83571E+00 6.83618E+00 6.83622E+00 6.83628E+00 6.83628E+00
          6.83630E+00 6.83631E+00                                     5.721E+00
 1.50E+03 7.18806E+00 7.24864E+00 7.30569E+00 7.35656E+00 7.40190E+00
          7.47940E+00 7.53792E+00 7.57800E+00 7.60140E+00 7.61171E+00
          7.61371E+00 7.60878E+00 7.59792E+00 7.58261E+00 7.56604E+00
          7.55093E+00 7.53691E+00 7.52243E+00 7.50649E+00 7.49126E+00
          7.47917E+00 7.47370E+00 7.46628E+00 7.45840E+00 7.45185E+00
          7.45068E+00 7.44901E+00 7.44873E+00 7.44860E+00 7.44858E+00
          7.44864E+00 7.44856E+00                                     6.496E+00
 2.00E+03 8.00554E+00 8.07228E+00 8.13322E+00 8.18398E+00 8.22579E+00
          8.28921E+00 8.32670E+00 8.34267E+00 8.34012E+00 8.32352E+00
          8.29862E+00 8.26653E+00 8.22752E+00 8.18315E+00 8.13790E+00
          8.09576E+00 8.05647E+00 8.01824E+00 7.98003E+00 7.94487E+00
          7.91449E+00 7.89942E+00 7.88266E+00 7.86775E+00 7.85390E+00
          7.85116E+00 7.84812E+00 7.84764E+00 7.84738E+00 7.84734E+00
          7.84739E+00 7.84731E+00                                     7.042E+00
 3.00E+03 9.18761E+00 9.26951E+00 9.34034E+00 9.39174E+00 9.42626E+00
          9.45905E+00 9.45096E+00 9.41621E+00 9.36033E+00 9.28930E+00
          9.21059E+00 9.12681E+00 9.03983E+00 8.95217E+00 8.86603E+00
          8.78385E+00 8.70611E+00 8.63252E+00 8.56285E+00 8.49714E+00
          8.43610E+00 8.40759E+00 8.37903E+00 8.35596E+00 8.33233E+00
          8.32651E+00 8.32182E+00 8.32122E+00 8.32077E+00 8.32070E+00
          8.32069E+00 8.32065E+00                                     7.775E+00
 4.00E+03 1.00427E+01 1.01329E+01 1.02078E+01 1.02555E+01 1.02798E+01
          1.02794E+01 1.02265E+01 1.01435E+01 1.00387E+01 9.92006E+00
          9.79729E+00 9.67290E+00 9.54781E+00 9.42408E+00 9.30370E+00
          9.18926E+00 9.08160E+00 8.98092E+00 8.88726E+00 8.80006E+00
          8.71920E+00 8.68138E+00 8.64415E+00 8.61474E+00 8.58453E+00
          8.57717E+00 8.57128E+00 8.57050E+00 8.56994E+00 8.56985E+00
          8.56979E+00 8.56980E+00                                     8.249E+00
 5.00E+03 1.07180E+01 1.08004E+01 1.08667E+01 1.09049E+01 1.09187E+01
          1.08943E+01 1.08103E+01 1.06868E+01 1.05353E+01 1.03692E+01
          1.02040E+01 1.00425E+01 9.88384E+00 9.72918E+00 9.58166E+00
          9.44463E+00 9.31745E+00 9.19663E+00 9.08004E+00 8.97222E+00
          8.87682E+00 8.83243E+00 8.78849E+00 8.75382E+00 8.71907E+00
          8.71050E+00 8.70372E+00 8.70286E+00 8.70218E+00 8.70210E+00
          8.70203E+00 8.70204E+00                                     8.580E+00
 6.00E+03 1.12685E+01 1.13416E+01 1.13979E+01 1.14248E+01 1.14263E+01
          1.13753E+01 1.12601E+01 1.10996E+01 1.09072E+01 1.06997E+01
          1.04965E+01 1.03014E+01 1.01141E+01 9.93559E+00 9.76735E+00
          9.61113E+00 9.46586E+00 9.32722E+00 9.19255E+00 9.06745E+00
          8.95834E+00 8.90932E+00 8.86026E+00 8.82083E+00 8.78262E+00
          8.77328E+00 8.76574E+00 8.76479E+00 8.76405E+00 8.76394E+00
          8.76389E+00 8.76389E+00                                     8.822E+00
 8.00E+03 1.21111E+01 1.21874E+01 1.22389E+01 1.22472E+01 1.22191E+01
          1.20912E+01 1.18898E+01 1.16522E+01 1.13939E+01 1.11293E+01
          1.08748E+01 1.06333E+01 1.04034E+01 1.01851E+01 9.97920E+00
          9.78672E+00 9.60733E+00 9.43837E+00 9.27801E+00 9.12895E+00
          8.99626E+00 8.93719E+00 8.87964E+00 8.83471E+00 8.79071E+00
          8.78012E+00 8.77159E+00 8.77048E+00 8.76965E+00 8.76954E+00
          8.76947E+00 8.76947E+00                                     9.142E+00
 1.00E+04 1.27631E+01 1.28238E+01 1.28563E+01 1.28397E+01 1.27826E+01
          1.25911E+01 1.23235E+01 1.20233E+01 1.17076E+01 1.13916E+01
          1.10921E+01 1.08112E+01 1.05467E+01 1.02971E+01 1.00633E+01
          9.84504E+00 9.64166E+00 9.44941E+00 9.26598E+00 9.09560E+00
          8.94468E+00 8.87748E+00 8.81286E+00 8.76341E+00 8.71528E+00
          8.70373E+00 8.69446E+00 8.69326E+00 8.69238E+00 8.69224E+00
          8.69217E+00 8.69216E+00                                     9.334E+00
 1.50E+04 1.39084E+01 1.39330E+01 1.39206E+01 1.38443E+01 1.37166E+01
          1.33727E+01 1.29536E+01 1.25228E+01 1.20982E+01 1.16914E+01
          1.13145E+01 1.09650E+01 1.06388E+01 1.03305E+01 1.00429E+01
          9.77496E+00 9.52549E+00 9.28969E+00 9.06475E+00 8.85590E+00
          8.66853E+00 8.58304E+00 8.50293E+00 8.44460E+00 8.38923E+00
          8.37603E+00 8.36564E+00 8.36431E+00 8.36331E+00 8.36316E+00
          8.36307E+00 8.36305E+00                                     9.559E+00
 2.00E+04 1.50260E+01 1.48267E+01 1.46160E+01 1.43867E+01 1.41467E+01
          1.36650E+01 1.31821E+01 1.27099E+01 1.22515E+01 1.18094E+01
          1.13861E+01 1.09821E+01 1.06004E+01 1.02393E+01 9.90061E+00
          9.58216E+00 9.28518E+00 9.01075E+00 8.75947E+00 8.52878E+00
          8.32275E+00 8.23676E+00 8.16850E+00 8.12157E+00 8.01824E+00
          7.97503E+00 7.98362E+00 7.99032E+00 7.98680E+00 7.98453E+00
          7.98847E+00 7.98591E+00                                     9.615E+00
 3.00E+04 1.58971E+01 1.56892E+01 1.54544E+01 1.51743E+01 1.48639E+01
          1.42162E+01 1.35550E+01 1.29191E+01 1.23173E+01 1.17547E+01
          1.12332E+01 1.07524E+01 1.03070E+01 9.88981E+00 9.50420E+00
          9.14763E+00 8.81707E+00 8.50695E+00 8.21375E+00 7.94129E+00
          7.69187E+00 7.57627E+00 7.47194E+00 7.39769E+00 7.30539E+00
          7.27482E+00 7.27574E+00 7.27894E+00 7.27601E+00 7.27454E+00
          7.27665E+00 7.27532E+00                                     9.591E+00
 4.00E+04 1.64570E+01 1.62441E+01 1.59894E+01 1.56640E+01 1.52901E+01
          1.44940E+01 1.36817E+01 1.29220E+01 1.22244E+01 1.15891E+01
          1.10127E+01 1.04902E+01 1.00113E+01 9.56319E+00 9.14901E+00
          8.76694E+00 8.41029E+00 8.06961E+00 7.73913E+00 7.42725E+00
          7.13723E+00 6.99760E+00 6.86669E+00 6.77556E+00 6.70340E+00
          6.68692E+00 6.67406E+00 6.67253E+00 6.67133E+00 6.67112E+00
          6.67106E+00 6.67106E+00                                     9.509E+00
 5.00E+04 1.70502E+01 1.66977E+01 1.63190E+01 1.58969E+01 1.54505E+01
          1.45588E+01 1.36882E+01 1.28774E+01 1.21309E+01 1.14472E+01
          1.08246E+01 1.02592E+01 9.74422E+00 9.26617E+00 8.82411E+00
          8.41603E+00 8.03443E+00 7.67253E+00 7.32434E+00 6.98846E+00
          6.66584E+00 6.51269E+00 6.37207E+00 6.27531E+00 6.19563E+00
          6.18037E+00 6.16596E+00 6.16398E+00 6.16289E+00 6.16269E+00
          6.16273E+00 6.16263E+00                                     9.414E+00
 6.00E+04 1.75590E+01 1.70510E+01 1.65382E+01 1.60194E+01 1.55084E+01
          1.45485E+01 1.36512E+01 1.28140E+01 1.20356E+01 1.13145E+01
          1.06525E+01 1.00500E+01 9.50393E+00 9.00200E+00 8.53752E+00
          8.10736E+00 7.70467E+00 7.32696E+00 6.96911E+00 6.61770E+00
          6.26558E+00 6.09731E+00 5.94840E+00 5.85078E+00 5.76538E+00
          5.74909E+00 5.73381E+00 5.73180E+00 5.73063E+00 5.73038E+00
          5.73052E+00 5.73032E+00                                     9.322E+00
 8.00E+04 1.81285E+01 1.75062E+01 1.68847E+01 1.62674E+01 1.56689E+01
          1.45643E+01 1.35551E+01 1.26329E+01 1.17900E+01 1.10172E+01
          1.03112E+01 9.67324E+00 9.09447E+00 8.56195E+00 8.06679E+00
          7.60736E+00 7.17692E+00 6.77188E+00 6.38661E+00 6.00429E+00
          5.61564E+00 5.42934E+00 5.26830E+00 5.16584E+00 5.07047E+00
          5.05028E+00 5.03394E+00 5.03204E+00 5.03061E+00 5.03034E+00
          5.03036E+00 5.03019E+00                                     9.172E+00
 1.00E+05 1.84846E+01 1.77837E+01 1.70874E+01 1.64022E+01 1.57429E+01
          1.45350E+01 1.34432E+01 1.24544E+01 1.15582E+01 1.07448E+01
          1.00079E+01 9.34812E+00 8.75193E+00 8.20369E+00 7.69075E+00
          7.20989E+00 6.75724E+00 6.32824E+00 5.91892E+00 5.51509E+00
          5.10947E+00 4.91504E+00 4.74327E+00 4.63024E+00 4.52651E+00
          4.50264E+00 4.48521E+00 4.48337E+00 4.48163E+00 4.48134E+00
          4.48122E+00 4.48112E+00                                     9.051E+00
 1.50E+05 1.90599E+01 1.82112E+01 1.73731E+01 1.65570E+01 1.57773E+01
          1.43599E+01 1.31087E+01 1.20120E+01 1.10440E+01 1.01851E+01
          9.41877E+00 8.73130E+00 8.10577E+00 7.52507E+00 6.97799E+00
          6.46143E+00 5.97839E+00 5.52052E+00 5.08286E+00 4.65439E+00
          4.22739E+00 4.01865E+00 3.82382E+00 3.68530E+00 3.56355E+00
          3.53589E+00 3.51448E+00 3.51196E+00 3.50990E+00 3.50962E+00
          3.50939E+00 3.50934E+00                                     8.839E+00
 2.00E+05 1.95223E+01 1.84818E+01 1.74785E+01 1.65428E+01 1.56787E+01
          1.41461E+01 1.28247E+01 1.16765E+01 1.06688E+01 9.77713E+00
          8.98646E+00 8.27916E+00 7.63735E+00 7.04410E+00 6.48297E+00
          5.94696E+00 5.44341E+00 4.97238E+00 4.52718E+00 4.09295E+00
          3.65803E+00 3.44198E+00 3.23152E+00 3.07425E+00 2.94149E+00
          2.91090E+00 2.88624E+00 2.88337E+00 2.88100E+00 2.88064E+00
          2.88046E+00 2.88041E+00                                     8.721E+00
 3.00E+05 2.01874E+01 1.89016E+01 1.76866E+01 1.65965E+01 1.56187E+01
          1.39092E+01 1.24664E+01 1.12388E+01 1.01902E+01 9.27539E+00
          8.46182E+00 7.73106E+00 7.06516E+00 6.44893E+00 5.86803E+00
          5.31531E+00 4.79560E+00 4.31599E+00 3.86598E+00 3.42615E+00
          2.98320E+00 2.76116E+00 2.54234E+00 2.37449E+00 2.22402E+00
          2.18811E+00 2.15929E+00 2.15590E+00 2.15305E+00 2.15266E+00
          2.15241E+00 2.15238E+00                                     8.698E+00
 4.00E+05 2.07405E+01 1.92618E+01 1.78891E+01 1.67001E+01 1.56598E+01
          1.38524E+01 1.23470E+01 1.10674E+01 9.98095E+00 9.04037E+00
          8.20449E+00 7.45165E+00 6.76385E+00 6.12723E+00 5.53247E+00
          4.97377E+00 4.45032E+00 3.96298E+00 3.50631E+00 3.06107E+00
          2.61656E+00 2.39359E+00 2.17293E+00 2.00050E+00 1.83627E+00
          1.79664E+00 1.76503E+00 1.76085E+00 1.75780E+00 1.75746E+00
          1.75708E+00 1.75704E+00                                     8.836E+00
 5.00E+05 2.12527E+01 1.96233E+01 1.81291E+01 1.68673E+01 1.57818E+01
          1.38940E+01 1.23393E+01 1.10243E+01 9.91020E+00 8.94753E+00
          8.09006E+00 7.31568E+00 6.61040E+00 5.96160E+00 5.35712E+00
          4.78906E+00 4.25604E+00 3.75858E+00 3.29609E+00 2.84942E+00
          2.40253E+00 2.17685E+00 1.95202E+00 1.77395E+00 1.59935E+00
          1.55618E+00 1.52193E+00 1.51753E+00 1.51422E+00 1.51379E+00
          1.51347E+00 1.51333E+00                                     9.054E+00
 6.00E+05 2.17123E+01 1.99631E+01 1.83745E+01 1.70598E+01 1.59430E+01
          1.39924E+01 1.23973E+01 1.10558E+01 9.91849E+00 8.93493E+00
          8.05848E+00 7.26674E+00 6.54645E+00 5.88548E+00 5.27091E+00
          4.69399E+00 4.15253E+00 3.64583E+00 3.17401E+00 2.72370E+00
          2.27313E+00 2.04452E+00 1.81438E+00 1.62936E+00 1.44500E+00
          1.39890E+00 1.36218E+00 1.35747E+00 1.35392E+00 1.35345E+00
          1.35311E+00 1.35293E+00                                     9.312E+00
 8.00E+05 2.24795E+01 2.05812E+01 1.88743E+01 1.74912E+01 1.63286E+01
          1.42685E+01 1.25944E+01 1.12116E+01 1.00466E+01 9.03834E+00
          8.13650E+00 7.31981E+00 6.57662E+00 5.89514E+00 5.26127E+00
          4.66543E+00 4.10508E+00 3.57891E+00 3.08574E+00 2.61979E+00
          2.15603E+00 1.91881E+00 1.67595E+00 1.47607E+00 1.27151E+00
          1.21940E+00 1.17761E+00 1.17237E+00 1.16821E+00 1.16768E+00
          1.16724E+00 1.16709E+00                                     9.882E+00
 1.00E+06 2.31086E+01 2.10957E+01 1.93006E+01 1.78729E+01 1.66865E+01
          1.45690E+01 1.28557E+01 1.14462E+01 1.02585E+01 9.22827E+00
          8.30621E+00 7.47122E+00 6.71052E+00 6.01166E+00 5.36129E+00
          4.74985E+00 4.17337E+00 3.62824E+00 3.11133E+00 2.61990E+00
          2.13729E+00 1.88894E+00 1.63136E+00 1.41541E+00 1.18891E+00
          1.13032E+00 1.08323E+00 1.07730E+00 1.07260E+00 1.07200E+00
          1.07151E+00 1.07137E+00                                     1.046E+01
 1.50E+06 2.42611E+01 2.20722E+01 2.01463E+01 1.86613E+01 1.74523E+01
          1.52740E+01 1.35357E+01 1.20886E+01 1.08612E+01 9.79138E+00
          8.83413E+00 7.96757E+00 7.17662E+00 6.44706E+00 5.76483E+00
          5.11944E+00 4.50575E+00 3.91799E+00 3.34999E+00 2.79495E+00
          2.24781E+00 1.96515E+00 1.66326E+00 1.40175E+00 1.11849E+00
          1.04366E+00 9.83496E-01 9.75961E-01 9.69930E-01 9.69195E-01
          9.68581E-01 9.68488E-01                                     1.180E+01
 2.00E+06 2.50119E+01 2.27512E+01 2.07761E+01 1.92779E+01 1.80703E+01
          1.58735E+01 1.41279E+01 1.26654E+01 1.14223E+01 1.03357E+01
          9.36002E+00 8.47345E+00 7.66185E+00 6.91093E+00 6.20518E+00
          5.53304E+00 4.88931E+00 4.26791E+00 3.66053E+00 3.05408E+00
          2.43598E+00 2.11448E+00 1.76243E+00 1.45093E+00 1.11110E+00
          1.02108E+00 9.48279E-01 9.39247E-01 9.31869E-01 9.30954E-01
          9.30121E-01 9.30002E-01                                     1.293E+01
 3.00E+06 2.59395E+01 2.35815E+01 2.15519E+01 2.00692E+01 1.89140E+01
          1.68042E+01 1.50995E+01 1.36438E+01 1.23846E+01 1.12702E+01
          1.02623E+01 9.34287E+00 8.50073E+00 7.72261E+00 6.99167E+00
          6.29396E+00 5.62050E+00 4.95922E+00 4.29514E+00 3.60718E+00
          2.85853E+00 2.44538E+00 1.99568E+00 1.59293E+00 1.14396E+00
          1.02071E+00 9.22468E-01 9.10634E-01 9.01209E-01 8.99795E-01
          8.99047E-01 8.97333E-01                                     1.472E+01
 4.00E+06 2.62551E+01 2.39560E+01 2.20007E+01 2.06161E+01 1.95605E+01
          1.75752E+01 1.58960E+01 1.44196E+01 1.31173E+01 1.19600E+01
          1.09277E+01 1.00009E+01 9.16105E+00 8.38806E+00 7.65847E+00
          6.95380E+00 6.26466E+00 5.57833E+00 4.87353E+00 4.11129E+00
          3.24644E+00 2.76123E+00 2.23139E+00 1.75583E+00 1.19603E+00
          1.03297E+00 9.12332E-01 8.98792E-01 8.86333E-01 8.84315E-01
          8.83729E-01 8.80244E-01                                     1.607E+01
 5.00E+06 2.66105E+01 2.42635E+01 2.22927E+01 2.09446E+01 1.99481E+01
          1.80449E+01 1.64130E+01 1.49676E+01 1.36840E+01 1.25365E+01
          1.15070E+01 1.05780E+01 9.73247E+00 8.95182E+00 8.21378E+00
          7.50001E+00 6.79980E+00 6.09781E+00 5.36785E+00 4.56036E+00
          3.61426E+00 3.06724E+00 2.45372E+00 1.90468E+00 1.25025E+00
          1.05684E+00 9.08585E-01 8.91088E-01 8.76063E-01 8.73891E-01
          8.72796E-01 8.68267E-01                                     1.713E+01
 6.00E+06 2.68396E+01 2.44556E+01 2.24776E+01 2.11699E+01 2.02308E+01
          1.83953E+01 1.68087E+01 1.53946E+01 1.41327E+01 1.29991E+01
          1.19776E+01 1.10521E+01 1.02071E+01 9.42490E+00 8.68411E+00
          7.96662E+00 7.26066E+00 6.54899E+00 5.80137E+00 4.95965E+00
          3.94880E+00 3.35062E+00 2.66636E+00 2.04737E+00 1.30596E+00
          1.08375E+00 9.07458E-01 8.85676E-01 8.67877E-01 8.65591E-01
          8.64116E-01 8.58887E-01                                     1.798E+01
 8.00E+06 2.71249E+01 2.46883E+01 2.27068E+01 2.14732E+01 2.06318E+01
          1.89014E+01 1.73932E+01 1.60367E+01 1.48174E+01 1.37146E+01
          1.27149E+01 1.18043E+01 1.09688E+01 1.01924E+01 9.45497E+00
          8.73856E+00 8.03007E+00 7.30941E+00 6.54039E+00 5.65155E+00
          4.54421E+00 3.86585E+00 3.06512E+00 2.31843E+00 1.41895E+00
          1.14280E+00 9.11105E-01 8.80364E-01 8.56368E-01 8.53758E-01
          8.51705E-01 8.45846E-01                                     1.930E+01
 1.00E+07 2.72740E+01 2.48088E+01 2.28325E+01 2.16574E+01 2.08899E+01
          1.92415E+01 1.77970E+01 1.64906E+01 1.53107E+01 1.42389E+01
          1.32636E+01 1.23722E+01 1.15520E+01 1.07879E+01 1.00605E+01
          9.35188E+00 8.64822E+00 7.92754E+00 7.14948E+00 6.23285E+00
          5.05975E+00 4.32232E+00 3.43078E+00 2.57312E+00 1.53000E+00
          1.20397E+00 9.18862E-01 8.79049E-01 8.48221E-01 8.45187E-01
          8.42685E-01 8.36754E-01                                     2.029E+01
 1.50E+07 2.74307E+01 2.49443E+01 2.29902E+01 2.19059E+01 2.12506E+01
          1.97470E+01 1.84160E+01 1.72041E+01 1.61030E+01 1.50980E+01
          1.41798E+01 1.33380E+01 1.25612E+01 1.18358E+01 1.11430E+01
          1.04648E+01 9.78660E+00 9.08385E+00 8.31025E+00 7.36933E+00
          6.10810E+00 5.27806E+00 4.22934E+00 3.16436E+00 1.79550E+00
          1.35752E+00 9.47277E-01 8.85315E-01 8.35961E-01 8.31377E-01
          8.28528E-01 8.23202E-01                                     2.200E+01
 2.00E+07 2.74778E+01 2.49861E+01 2.30491E+01 2.20175E+01 2.14274E+01
          2.00170E+01 1.87607E+01 1.76143E+01 1.65710E+01 1.56180E+01
          1.47472E+01 1.39491E+01 1.32134E+01 1.25266E+01 1.18702E+01
          1.12259E+01 1.05790E+01 9.90406E+00 9.15201E+00 8.21815E+00
          6.92618E+00 6.04781E+00 4.90182E+00 3.68892E+00 2.04179E+00
          1.50528E+00 9.80625E-01 8.97921E-01 8.29649E-01 8.23093E-01
          8.20093E-01 8.15667E-01                                     2.311E+01
 3.00E+07 2.75034E+01 2.49997E+01 2.30789E+01 2.21087E+01 2.15959E+01
          2.02961E+01 1.91318E+01 1.80697E+01 1.71038E+01 1.62238E+01
          1.54227E+01 1.46922E+01 1.40226E+01 1.34011E+01 1.28085E+01
          1.22265E+01 1.16406E+01 1.10256E+01 1.03306E+01 9.44335E+00
          8.15920E+00 7.24396E+00 5.99237E+00 4.58419E+00 2.48594E+00
          1.78044E+00 1.05104E+00 9.30677E-01 8.25651E-01 8.14473E-01
          8.10463E-01 8.07465E-01                                     2.454E+01
 4.00E+07 2.74884E+01 2.49871E+01 2.30826E+01 2.21507E+01 2.16832E+01
          2.04484E+01 1.93387E+01 1.83264E+01 1.74066E+01 1.65703E+01
          1.58115E+01 1.51234E+01 1.44979E+01 1.39240E+01 1.33851E+01
          1.28636E+01 1.23425E+01 1.17903E+01 1.11508E+01 1.03129E+01
          9.06287E+00 8.14535E+00 6.85270E+00 5.33072E+00 2.89432E+00
          2.03399E+00 1.12070E+00 9.65703E-01 8.27212E-01 8.12393E-01
          8.05453E-01 8.03173E-01                                     2.544E+01
 5.00E+07 2.74601E+01 2.49725E+01 2.30868E+01 2.21812E+01 2.17412E+01
          2.05475E+01 1.94724E+01 1.84922E+01 1.76024E+01 1.67953E+01
          1.60661E+01 1.54085E+01 1.48160E+01 1.42789E+01 1.37823E+01
          1.33097E+01 1.28435E+01 1.23490E+01 1.17664E+01 1.09812E+01
          9.76954E+00 8.85922E+00 7.55572E+00 5.97203E+00 3.27919E+00
          2.26454E+00 1.18838E+00 1.00330E+00 8.31775E-01 8.11865E-01
          8.02500E-01 8.00565E-01                                     2.609E+01
 6.00E+07 2.74042E+01 2.49407E+01 2.30778E+01 2.21930E+01 2.17716E+01
          2.06083E+01 1.95587E+01 1.86023E+01 1.77352E+01 1.69512E+01
          1.62459E+01 1.56141E+01 1.50495E+01 1.45426E+01 1.40789E+01
          1.36424E+01 1.32165E+01 1.27679E+01 1.22367E+01 1.15036E+01
          1.03386E+01 9.44660E+00 8.14673E+00 6.52450E+00 3.63375E+00
          2.48498E+00 1.25377E+00 1.03913E+00 8.37418E-01 8.12895E-01
          8.00737E-01 7.98595E-01                                     2.658E+01
 8.00E+07 2.73153E+01 2.48991E+01 2.30758E+01 2.22180E+01 2.18165E+01
          2.06909E+01 1.96739E+01 1.87495E+01 1.79139E+01 1.71622E+01
          1.64909E+01 1.58954E+01 1.53701E+01 1.49064E+01 1.44903E+01
          1.41072E+01 1.37434E+01 1.33695E+01 1.29279E+01 1.22923E+01
          1.12217E+01 1.03715E+01 9.09882E+00 7.44327E+00 4.26817E+00
          2.89969E+00 1.37904E+00 1.11104E+00 8.51328E-01 8.16850E-01
