 PENELOPE (v. 2012)  Material data file ...............
 Material: KBr                                                           
 Mass density = 2.75000000E+00 g/cm**3
 Number of elements in the molecule =  2
   atomic number = 19,  atoms/molecule = 1.00000000E+00
   atomic number = 35,  atoms/molecule = 9.99769306E-01
 Mean excitation energy = 2.78622615E+02 eV
 Number of oscillators = 16 (E/P inelastic model)
   1  1.00000000E+00  0.00000000E+00  4.38082196E+00   0  30
   2  1.29983851E+01  1.68963566E+01  3.05783269E+01   0  30
   3  2.00000000E+00  3.70000000E+01  6.79692299E+01  19   5
   4  5.99861584E+00  7.60000000E+01  1.39500639E+02  35   9
   5  3.99907722E+00  7.70000000E+01  1.41238445E+02  35   8
   6  3.99907722E+00  1.89000000E+02  3.46305180E+02  35   7
   7  1.99953861E+00  1.97000000E+02  3.60922034E+02  35   6
   8  1.99953861E+00  2.62000000E+02  4.79987498E+02  35   5
   9  4.00000000E+00  2.96000000E+02  5.42293031E+02  19   4
  10  2.00000000E+00  2.99000000E+02  5.47764936E+02  19   3
  11  2.00000000E+00  3.81000000E+02  6.97976662E+02  19   2
  12  3.99907722E+00  1.55600000E+03  2.85046347E+03  35   4
  13  1.99953861E+00  1.60200000E+03  2.93472679E+03  35   3
  14  1.99953861E+00  1.78700000E+03  3.27362999E+03  35   2
  15  2.00000000E+00  3.61000000E+03  6.61320292E+03  19   1
  16  1.99953861E+00  1.34810000E+04  2.46960012E+04  35   1
 Number of shells = 16 (Compton IA model)
   1  1.00000000E+00  0.00000000E+00  3.03494434E+00   0  30
   2  1.29983851E+01  1.68963566E+01  5.00843930E-01   0  30
   3  2.00000000E+00  3.70000000E+01  5.67766000E-01  19   5
   4  5.99861584E+00  7.60000000E+01  1.07608000E-01  35   9
   5  3.99907722E+00  7.70000000E+01  1.06910000E-01  35   8
   6  3.99907722E+00  1.89000000E+02  1.43385000E-01  35   7
   7  1.99953861E+00  1.97000000E+02  1.40975000E-01  35   6
   8  1.99953861E+00  2.62000000E+02  2.32059000E-01  35   5
   9  4.00000000E+00  2.96000000E+02  9.64819000E-02  19   4
  10  2.00000000E+00  2.99000000E+02  9.58954000E-02  19   3
  11  2.00000000E+00  3.81000000E+02  1.84412000E-01  19   2
  12  3.99907722E+00  1.55600000E+03  4.57566000E-02  35   4
  13  1.99953861E+00  1.60200000E+03  4.48309000E-02  35   3
  14  1.99953861E+00  1.78700000E+03  8.90462000E-02  35   2
  15  2.00000000E+00  3.61000000E+03  4.60230000E-02  19   1
  16  1.99953861E+00  1.34810000E+04  2.41475000E-02  35   1
 *** RELAX:  Z = 19,  no. of shells =  8,  no. of transitions =  72
   1 1s1/2 2  3.61000E+03  4.60230E-02
   2 2s1/2 2  3.81000E+02  1.84412E-01
   3 2p1/2 2  2.99000E+02  9.58954E-02
   4 2p3/2 4  2.96000E+02  9.64819E-02
   5 3s1/2 2  3.70000E+01  5.67766E-01
   6 3p1/2 2  1.90000E+01  3.74525E-01
   7 3p3/2 4  1.87000E+01  3.76666E-01
  10 4s1/2 1  4.34100E+00  2.44866E+00
   1  3  0  4.18599E-02  3.31120E+03
   1  4  0  8.26518E-02  3.31395E+03
   1  6  0  3.99739E-03  3.58963E+03
   1  7  0  7.91008E-03  3.58963E+03
   1  2  2  5.89630E-02  2.84098E+03
   1  2  3  6.48009E-02  2.91049E+03
   1  2  4  1.23626E-01  2.91350E+03
   1  2  5  1.41070E-02  3.17164E+03
   1  2  6  6.89276E-03  3.18839E+03
   1  2  7  1.31233E-02  3.18867E+03
   1  2 10  6.86507E-04  3.20792E+03
   1  3  3  1.16788E-02  2.98000E+03
   1  3  4  2.89645E-01  2.98301E+03
   1  3  5  6.75386E-03  3.24115E+03
   1  3  6  2.38084E-03  3.25790E+03
   1  3  7  2.72851E-02  3.25818E+03
   1  3 10  3.25392E-04  3.27743E+03
   1  4  4  1.63935E-01  2.98602E+03
   1  4  5  1.29199E-02  3.24416E+03
   1  4  6  2.72613E-02  3.26091E+03
   1  4  7  3.12637E-02  3.26119E+03
   1  4 10  6.19017E-04  3.28044E+03
   1  5  5  8.33295E-04  3.50230E+03
   1  5  6  7.22188E-04  3.51905E+03
   1  5  7  1.37698E-03  3.51933E+03
   1  5 10  8.33295E-05  3.53858E+03
   1  6  6  1.19046E-04  3.53580E+03
   1  6  7  2.58323E-03  3.53608E+03
   1  6 10  3.57137E-05  3.55533E+03
   1  7  7  1.49204E-03  3.53636E+03
   1  7 10  6.74576E-05  3.55561E+03
   2  3  0  1.11190E-04  6.95100E+01
   2  4  0  3.14070E-04  7.25200E+01
   2  6  0  1.47230E-04  3.61810E+02
   2  7  0  2.25400E-04  3.61520E+02
   2  3 10  6.32995E-03  6.52900E+01
   2  4 10  1.22536E-02  6.83000E+01
   2  5  5  1.09421E-02  2.90160E+02
   2  5  6  1.84072E-02  3.06910E+02
   2  5  7  3.64059E-02  3.07190E+02
   2  5 10  9.71733E-04  3.26440E+02
   2  6  6  4.43715E-04  3.23660E+02
   2  6  7  1.62172E-04  3.23940E+02
   2  6 10  7.22612E-04  3.43190E+02
   2  7  7  1.00934E-03  3.24220E+02
   2  7 10  1.42836E-03  3.43470E+02
   3  5  0  8.35413E-04  2.62450E+02
   3  7  0  4.81412E-07  2.79520E+02
   3 10  0  2.03921E-05  2.97430E+02
   3  5  5  1.14174E-02  2.20650E+02
   3  5  6  2.07641E-01  2.37400E+02
   3  5  7  1.48840E-02  2.37680E+02
   3  5 10  9.88199E-04  2.56930E+02
   3  6  6  1.62162E-01  2.54150E+02
   3  6  7  5.74928E-01  2.54430E+02
   3  6 10  1.03231E-02  2.73680E+02
   3  7  7  1.61615E-02  2.54710E+02
   3  7 10  6.38519E-04  2.73960E+02
   4  5  0  7.89471E-04  2.59703E+02
   4  6  0  2.24120E-07  2.77180E+02
   4  7  0  2.20150E-07  2.76900E+02
   4 10  0  1.92520E-05  2.94420E+02
   4  5  5  1.12219E-02  2.17640E+02
   4  5  6  7.18101E-03  2.34390E+02
   4  5  7  2.13721E-01  2.34670E+02
   4  5 10  9.76484E-04  2.53920E+02
   4  6  6  2.71897E-03  2.51140E+02
   4  6  7  2.99761E-01  2.51420E+02
   4  6 10  3.00446E-04  2.70670E+02
   4  7  7  4.52595E-01  2.51700E+02
   4  7 10  1.07157E-02  2.70950E+02
   2 30 30  9.10126E-01  4.00274E+01
 *** RELAX:  Z = 35,  no. of shells = 12,  no. of transitions = 278
   1 1s1/2 2  1.34810E+04  2.41475E-02
   2 2s1/2 2  1.78700E+03  8.90462E-02
   3 2p1/2 2  1.60200E+03  4.48309E-02
   4 2p3/2 4  1.55600E+03  4.57566E-02
   5 3s1/2 2  2.62000E+02  2.32059E-01
   6 3p1/2 2  1.97000E+02  1.40975E-01
   7 3p3/2 4  1.89000E+02  1.43385E-01
   8 3d3/2 4  7.70000E+01  1.06910E-01
   9 3d5/2 6  7.60000E+01  1.07608E-01
  10 4s1/2 2  2.38000E+01  7.59818E-01
  11 4p1/2 2  1.18500E+01  5.39954E-01
  12 4p3/2 3  1.18500E+01  5.51962E-01
   1  3  0  1.82072E-01  1.18778E+04
   1  4  0  3.51534E-01  1.19244E+04
   1  6  0  2.51133E-02  1.32847E+04
   1  7  0  4.89996E-02  1.32916E+04
   1  8  0  6.60448E-05  1.33963E+04
   1  9  0  9.48212E-05  1.33963E+04
   1 11  0  1.67432E-03  1.34234E+04
   1 12  0  3.22224E-03  1.34240E+04
   1  2  2  2.67974E-02  9.89660E+03
   1  2  3  2.99306E-02  1.00637E+04
   1  2  4  4.99645E-02  1.01122E+04
   1  2  5  7.86075E-03  1.14143E+04
   1  2  6  4.42909E-03  1.14740E+04
   1  2  7  7.33790E-03  1.14810E+04
   1  2  8  3.18089E-04  1.15862E+04
   1  2  9  4.15274E-04  1.15873E+04
   1  2 10  9.67001E-04  1.16416E+04
   1  2 11  3.41232E-04  1.16542E+04
   1  2 12  5.59865E-04  1.16548E+04
   1  3  3  5.04687E-03  1.02308E+04
   1  3  4  1.16418E-01  1.02793E+04
   1  3  5  3.67835E-03  1.15814E+04
   1  3  6  1.38227E-03  1.16411E+04
   1  3  7  1.45724E-02  1.16481E+04
   1  3  8  4.29136E-04  1.17533E+04
   1  3  9  1.55696E-03  1.17544E+04
   1  3 10  4.40707E-04  1.18087E+04
   1  3 11  1.05265E-04  1.18213E+04
   1  3 12  1.09197E-03  1.18219E+04
   1  4  4  6.31223E-02  1.03278E+04
   1  4  5  6.16168E-03  1.16299E+04
   1  4  6  1.45364E-02  1.16896E+04
   1  4  7  1.61080E-02  1.16966E+04
   1  4  8  1.91546E-03  1.18018E+04
   1  4  9  1.85069E-03  1.18029E+04
   1  4 10  7.39164E-04  1.18572E+04
   1  4 11  1.09774E-03  1.18698E+04
   1  4 12  1.20988E-03  1.18704E+04
   1  5  5  5.79069E-04  1.29320E+04
   1  5  6  5.57886E-04  1.29917E+04
   1  5  7  9.25090E-04  1.29987E+04
   1  5  8  3.76614E-05  1.31039E+04
   1  5  9  4.82506E-05  1.31051E+04
   1  5 10  1.42414E-04  1.31593E+04
   1  5 11  4.35452E-05  1.31719E+04
   1  5 12  7.06144E-05  1.31725E+04
   1  6  6  9.31028E-05  1.30514E+04
   1  6  7  1.89792E-03  1.30584E+04
   1  6  8  4.29733E-05  1.31636E+04
   1  6  9  1.62337E-04  1.31647E+04
   1  6 10  6.80374E-05  1.32190E+04
   1  6 11  1.43238E-05  1.32316E+04
   1  6 12  1.42039E-04  1.32321E+04
   1  7  7  1.07812E-03  1.30654E+04
   1  7  8  2.05929E-04  1.31706E+04
   1  7  9  1.95027E-04  1.31718E+04
   1  7 10  1.13861E-04  1.32260E+04
   1  7 11  1.45361E-04  1.32386E+04
   1  7 12  1.62322E-04  1.32392E+04
   1  8  9  1.73518E-05  1.32770E+04
   1  8 10  4.62706E-06  1.33312E+04
   1  8 11  3.47027E-06  1.33438E+04
   1  8 12  1.38813E-05  1.33444E+04
   1  9  9  4.62689E-06  1.32781E+04
   1  9 10  5.78333E-06  1.33324E+04
   1  9 11  1.15674E-05  1.33450E+04
   1  9 12  1.38808E-05  1.33455E+04
   1 10 10  8.09713E-06  1.33866E+04
   1 10 11  4.62701E-06  1.33992E+04
   1 10 12  8.09713E-06  1.33998E+04
   1 11 12  1.04111E-05  1.34124E+04
   1 12 12  5.78347E-06  1.34129E+04
   2  3  0  1.42686E-05  1.67100E+02
   2  4  0  8.04171E-05  2.15600E+02
   2  6  0  1.02582E-03  1.59630E+03
   2  7  0  1.83441E-03  1.59630E+03
   2  8  0  5.59093E-06  1.71190E+03
   2  9  0  8.31591E-06  1.71300E+03
   2 11  0  7.28638E-05  1.75761E+03
   2 12  0  1.29402E-04  1.75817E+03
   2  3  8  5.22921E-02  8.75100E+01
   2  3  9  8.34756E-02  8.86500E+01
   2  3 10  9.47382E-03  1.42920E+02
   2  3 11  4.30534E-03  1.55510E+02
   2  3 12  5.98302E-03  1.56070E+02
   2  4  8  1.60186E-01  1.36010E+02
   2  4  9  2.28694E-01  1.37150E+02
   2  4 10  1.59162E-02  1.91420E+02
   2  4 11  4.89463E-03  2.04010E+02
   2  4 12  1.03137E-02  2.04570E+02
   2  5  5  7.88243E-03  1.26622E+03
   2  5  6  1.49389E-02  1.32589E+03
   2  5  7  2.87954E-02  1.33293E+03
   2  5  8  2.00906E-02  1.43812E+03
   2  5  9  2.93171E-02  1.43926E+03
   2  5 10  1.72472E-03  1.49353E+03
   2  5 11  1.14677E-03  1.50612E+03
   2  5 12  2.19394E-03  1.50668E+03
   2  6  6  1.65315E-04  1.38556E+03
   2  6  7  6.01022E-04  1.39260E+03
   2  6  8  3.46737E-04  1.49779E+03
   2  6  9  6.40781E-03  1.49893E+03
   2  6 10  1.40027E-03  1.55320E+03
   2  6 11  1.89132E-05  1.56579E+03
   2  6 12  4.41329E-05  1.56635E+03
   2  7  7  7.85672E-04  1.39964E+03
   2  7  8  6.78075E-03  1.50483E+03
   2  7  9  4.79667E-03  1.50597E+03
   2  7 10  2.97726E-03  1.56024E+03
   2  7 11  4.94424E-05  1.57283E+03
   2  7 12  1.01203E-04  1.57339E+03
   2  8  8  8.18843E-04  1.61002E+03
   2  8  9  3.71518E-02  1.61116E+03
   2  8 10  1.80584E-03  1.66543E+03
   2  8 11  3.43211E-05  1.67802E+03
   2  8 12  4.60195E-04  1.67858E+03
   2  9  9  1.03294E-02  1.61230E+03
   2  9 10  2.63870E-03  1.66657E+03
   2  9 11  4.68625E-04  1.67916E+03
   2  9 12  3.36242E-04  1.67972E+03
   2 10 10  9.17626E-05  1.72084E+03
   2 10 11  1.07174E-04  1.73343E+03
   2 10 12  2.05243E-04  1.73399E+03
   2 11 11  5.18016E-07  1.74602E+03
   2 11 12  2.58998E-06  1.74658E+03
   2 12 12  2.80170E-06  1.74714E+03
   3  5  0  3.55419E-03  1.33963E+03
   3  7  0  2.28709E-05  1.41440E+03
   3  8  0  1.53540E-02  1.52592E+03
   3 10  0  1.61099E-04  1.57792E+03
   3 12  0  2.51959E-07  1.59107E+03
   3  5  5  2.19109E-03  1.09912E+03
   3  5  6  4.31400E-02  1.15879E+03
   3  5  7  3.86845E-03  1.16583E+03
   3  5  8  2.15961E-03  1.27102E+03
   3  5  9  5.67422E-03  1.27216E+03
   3  5 10  4.58103E-04  1.32643E+03
   3  5 11  2.56928E-03  1.33902E+03
   3  5 12  2.69046E-04  1.33958E+03
   3  6  6  3.95066E-02  1.21846E+03
   3  6  7  1.32975E-01  1.22550E+03
   3  6  8  6.14586E-02  1.33069E+03
   3  6  9  1.13910E-01  1.33183E+03
   3  6 10  5.40279E-03  1.38610E+03
   3  6 11  5.43176E-03  1.39869E+03
   3  6 12  9.95448E-03  1.39925E+03
   3  7  7  3.66000E-03  1.23254E+03
   3  7  8  7.56137E-02  1.33773E+03
   3  7  9  1.06581E-02  1.33887E+03
   3  7 10  4.26593E-04  1.39314E+03
   3  7 11  8.14394E-03  1.40573E+03
   3  7 12  4.82334E-04  1.40629E+03
   3  8  8  6.14910E-02  1.44292E+03
   3  8  9  2.74803E-01  1.44406E+03
   3  8 10  2.81142E-04  1.49833E+03
   3  8 11  3.70514E-03  1.51092E+03
   3  8 12  5.40881E-03  1.51148E+03
   3  9  9  1.31736E-02  1.44520E+03
   3  9 10  6.47143E-04  1.49947E+03
   3  9 11  6.48837E-03  1.51206E+03
   3  9 12  7.19852E-04  1.51262E+03
   3 10 10  2.42387E-05  1.55374E+03
   3 10 11  3.22355E-04  1.56633E+03
   3 10 12  2.90851E-05  1.56689E+03
   3 11 11  1.76936E-04  1.57892E+03
   3 11 12  5.86561E-04  1.57948E+03
   3 12 12  1.85899E-05  1.58004E+03
   4  5  0  4.07397E-03  1.29350E+03
   4  6  0  1.30469E-05  1.36080E+03
   4  7  0  1.24819E-05  1.36810E+03
   4  8  0  1.40269E-03  1.48046E+03
   4  9  0  1.37369E-02  1.48046E+03
   4 10  0  1.43649E-04  1.52942E+03
   4 11  0  1.20339E-07  1.54201E+03
   4 12  0  1.14209E-07  1.54257E+03
   4  5  5  2.42049E-03  1.05062E+03
   4  5  6  1.78971E-03  1.11029E+03
   4  5  7  4.69531E-02  1.11733E+03
   4  5  8  4.00748E-03  1.22252E+03
   4  5  9  4.41544E-03  1.22366E+03
   4  5 10  5.05631E-04  1.27793E+03
   4  5 11  1.22649E-04  1.29052E+03
   4  5 12  2.80098E-03  1.29108E+03
   4  6  6  6.70866E-04  1.16996E+03
   4  6  7  7.48914E-02  1.17700E+03
   4  6  8  4.46321E-03  1.28219E+03
   4  6  9  4.13497E-02  1.28333E+03
   4  6 10  1.95247E-04  1.33760E+03
   4  6 11  9.01156E-05  1.35019E+03
   4  6 12  4.56843E-03  1.35075E+03
   4  7  7  1.09143E-01  1.18404E+03
   4  7  8  9.40798E-02  1.28923E+03
   4  7  9  1.43325E-01  1.29037E+03
   4  7 10  5.84243E-03  1.34464E+03
   4  7 11  5.58953E-03  1.35723E+03
   4  7 12  1.48271E-02  1.35779E+03
   4  8  8  1.16167E-02  1.39442E+03
   4  8  9  2.30556E-01  1.39556E+03
   4  8 10  4.70595E-04  1.44983E+03
   4  8 11  3.32915E-04  1.46242E+03
   4  8 12  5.49193E-03  1.46298E+03
   4  9  9  1.56483E-01  1.39670E+03
   4  9 10  5.38175E-04  1.45097E+03
   4  9 11  2.94872E-03  1.46356E+03
   4  9 12  8.92880E-03  1.46412E+03
   4 10 10  2.75347E-05  1.50524E+03
   4 10 11  1.25159E-05  1.51783E+03
   4 10 12  3.50436E-04  1.51839E+03
   4 11 11  2.50317E-06  1.53042E+03
   4 11 12  3.27914E-04  1.53098E+03
   4 12 12  4.78096E-04  1.53154E+03
   5  6  0  1.28640E-05  5.96700E+01
   5  7  0  3.42006E-05  6.67100E+01
   5 11  0  1.43636E-05  2.39900E+02
   5 12  0  2.24554E-05  2.40460E+02
   5  7 11  1.12436E-01  5.51200E+01
   5  7 12  1.80935E-01  5.56800E+01
   5  8  8  1.03379E-02  9.23100E+01
   5  8  9  2.32724E-02  9.34500E+01
   5  8 10  6.15730E-02  1.47720E+02
   5  8 11  5.79510E-03  1.60310E+02
   5  8 12  4.89132E-03  1.60870E+02
   5  9  9  2.01035E-02  9.45900E+01
   5  9 10  9.08770E-02  1.48860E+02
   5  9 11  2.43116E-03  1.61450E+02
   5  9 12  1.22081E-02  1.62010E+02
   5 10 10  1.04319E-02  2.03130E+02
   5 10 11  9.23322E-03  2.15720E+02
   5 10 12  1.74468E-02  2.16280E+02
   5 11 11  6.20954E-04  2.28310E+02
   5 11 12  2.23054E-03  2.28870E+02
   5 12 12  1.28490E-03  2.29430E+02
   6  8  0  1.33030E-04  1.12230E+02
   6 10  0  2.43780E-05  1.67640E+02
   6  8 10  8.57756E-02  8.80500E+01
   6  8 11  6.41618E-02  1.00640E+02
   6  8 12  9.63036E-02  1.01200E+02
   6  9 10  1.37437E-02  8.91900E+01
   6  9 11  9.97009E-02  1.01780E+02
   6  9 12  9.75321E-03  1.02340E+02
   6 10 10  1.77273E-04  1.43460E+02
   6 10 11  3.29619E-03  1.56050E+02
   6 10 12  3.76344E-04  1.56610E+02
   6 11 11  1.04180E-03  1.68640E+02
   6 11 12  4.26280E-03  1.69200E+02
   6 12 12  1.07520E-04  1.69760E+02
   7  8  0  1.14041E-05  1.08900E+02
   7  9  0  1.06931E-04  1.08900E+02
   7 10  0  2.23162E-05  1.60600E+02
   7  8 10  2.02982E-02  8.10100E+01
   7  8 11  9.38337E-03  9.36000E+01
   7  8 12  8.49677E-02  9.41600E+01
   7  9 10  9.85840E-02  8.21500E+01
   7  9 11  6.37338E-02  9.47400E+01
   7  9 12  1.61827E-01  9.53000E+01
   7 10 10  1.27870E-04  1.36420E+02
   7 10 11  1.94656E-04  1.49010E+02
   7 10 12  3.95521E-03  1.49570E+02
   7 11 11  2.44340E-05  1.61600E+02
   7 11 12  2.65199E-03  1.62160E+02
   7 12 12  3.62773E-03  1.62720E+02
   8 11  0  3.36251E-06  6.80000E+01
   8 12  0  6.24872E-07  6.85600E+01
   8 11 11  4.50335E-02  5.64100E+01
   8 11 12  1.21787E-01  5.69700E+01
   8 12 12  3.41431E-02  5.75300E+01
   9 12  0  3.29938E-06  6.74200E+01
   9 11 11  8.40977E-03  5.52700E+01
   9 11 12  7.01718E-02  5.58300E+01
   9 12 12  1.15469E-01  5.63900E+01
   2 30 30  2.36275E-01  2.85014E+01
   3 30  0  1.53560E-09  4.85000E+01
   3 30 30  8.50788E-02  3.38806E+01
   5 30 30  4.33807E-01  4.32269E+01
   6 30 30  6.21142E-01  3.36014E+01
   7 30 30  5.50484E-01  2.72003E+01
   8 30 30  7.99032E-01  4.05734E+01
   9 30 30  8.05946E-01  3.94326E+01
 *** Electron scaled bremss x-section,  ZEQ = 2.81594E+01,  NDATA =  57
 1.00E+03 3.83289E+00 3.88864E+00 3.94376E+00 3.99777E+00 4.05079E+00
          4.15449E+00 4.25433E+00 4.34998E+00 4.44137E+00 4.52882E+00
          4.61310E+00 4.69431E+00 4.77244E+00 4.84820E+00 4.92368E+00
          5.00062E+00 5.07873E+00 5.15726E+00 5.23481E+00 5.30882E+00
          5.37611E+00 5.40828E+00 5.44561E+00 5.48258E+00 5.52815E+00
          5.54071E+00 5.55041E+00 5.55152E+00 5.55263E+00 5.55278E+00
          5.55284E+00 5.55357E+00                                     4.097E+00
 1.50E+03 4.87113E+00 4.92649E+00 4.98124E+00 5.03498E+00 5.08792E+00
          5.19227E+00 5.29366E+00 5.39140E+00 5.48474E+00 5.57299E+00
          5.65560E+00 5.73233E+00 5.80352E+00 5.87037E+00 5.93614E+00
          6.00383E+00 6.07384E+00 6.14647E+00 6.22265E+00 6.30498E+00
          6.39447E+00 6.43852E+00 6.47495E+00 6.49675E+00 6.52806E+00
          6.53981E+00 6.54511E+00 6.54533E+00 6.54619E+00 6.54617E+00
          6.54665E+00 6.55099E+00                                     4.983E+00
 2.00E+03 5.71891E+00 5.78201E+00 5.84351E+00 5.90227E+00 5.95866E+00
          6.06603E+00 6.16506E+00 6.25547E+00 6.33750E+00 6.41227E+00
          6.48164E+00 6.54604E+00 6.60613E+00 6.66298E+00 6.71950E+00
          6.77850E+00 6.84079E+00 6.90756E+00 6.97995E+00 7.05792E+00
          7.13954E+00 7.17931E+00 7.21410E+00 7.23637E+00 7.26043E+00
          7.26785E+00 7.27228E+00 7.27265E+00 7.27317E+00 7.27316E+00
          7.27326E+00 7.27705E+00                                     5.683E+00
 3.00E+03 7.05777E+00 7.13783E+00 7.21414E+00 7.28385E+00 7.34763E+00
          7.46078E+00 7.55323E+00 7.62589E+00 7.68117E+00 7.72413E+00
          7.76148E+00 7.79517E+00 7.82632E+00 7.85650E+00 7.88887E+00
          7.92621E+00 7.96858E+00 8.01470E+00 8.06387E+00 8.11874E+00
          8.18136E+00 8.21359E+00 8.24117E+00 8.25775E+00 8.27507E+00
          8.27935E+00 8.28231E+00 8.28264E+00 8.28296E+00 8.28300E+00
          8.28307E+00 8.28201E+00                                     6.747E+00
 4.00E+03 8.09761E+00 8.19952E+00 8.29327E+00 8.37262E+00 8.43918E+00
          8.54362E+00 8.61483E+00 8.66304E+00 8.69298E+00 8.71053E+00
          8.72330E+00 8.73288E+00 8.73932E+00 8.74347E+00 8.74806E+00
          8.75614E+00 8.76890E+00 8.78783E+00 8.81457E+00 8.84957E+00
          8.88997E+00 8.90953E+00 8.92773E+00 8.94050E+00 8.95178E+00
          8.95451E+00 8.95665E+00 8.95688E+00 8.95706E+00 8.95716E+00
          8.95704E+00 8.95203E+00                                     7.535E+00
 5.00E+03 8.95254E+00 9.06059E+00 9.15959E+00 9.24260E+00 9.31130E+00
          9.41559E+00 9.47846E+00 9.50843E+00 9.51199E+00 9.49882E+00
          9.48115E+00 9.46160E+00 9.44017E+00 9.41806E+00 9.39879E+00
          9.38570E+00 9.37868E+00 9.37575E+00 9.37593E+00 9.38338E+00
          9.40105E+00 9.41199E+00 9.42167E+00 9.42772E+00 9.43419E+00
          9.43587E+00 9.43713E+00 9.43722E+00 9.43732E+00 9.43741E+00
          9.43746E+00 9.42969E+00                                     8.151E+00
 6.00E+03 9.67791E+00 9.78470E+00 9.88279E+00 9.96550E+00 1.00342E+01
          1.01377E+01 1.01940E+01 1.02070E+01 1.01849E+01 1.01413E+01
          1.00933E+01 1.00455E+01 9.99925E+00 9.95603E+00 9.91731E+00
          9.88468E+00 9.85749E+00 9.83291E+00 9.80940E+00 9.79206E+00
          9.78752E+00 9.78999E+00 9.79144E+00 9.79092E+00 9.79241E+00
          9.79302E+00 9.79335E+00 9.79330E+00 9.79330E+00 9.79337E+00
          9.79336E+00 9.78454E+00                                     8.648E+00
 8.00E+03 1.08347E+01 1.09449E+01 1.10442E+01 1.11242E+01 1.11866E+01
          1.12697E+01 1.12952E+01 1.12685E+01 1.12006E+01 1.11089E+01
          1.10148E+01 1.09239E+01 1.08373E+01 1.07562E+01 1.06812E+01
          1.06124E+01 1.05488E+01 1.04862E+01 1.04222E+01 1.03640E+01
          1.03212E+01 1.03062E+01 1.02916E+01 1.02795E+01 1.02701E+01
          1.02681E+01 1.02664E+01 1.02661E+01 1.02659E+01 1.02660E+01
          1.02660E+01 1.02583E+01                                     9.400E+00
 1.00E+04 1.17430E+01 1.18495E+01 1.19434E+01 1.20150E+01 1.20666E+01
          1.21231E+01 1.21154E+01 1.20506E+01 1.19413E+01 1.18078E+01
          1.16744E+01 1.15472E+01 1.14271E+01 1.13151E+01 1.12105E+01
          1.11127E+01 1.10196E+01 1.09258E+01 1.08283E+01 1.07362E+01
          1.06619E+01 1.06323E+01 1.06030E+01 1.05795E+01 1.05594E+01
          1.05547E+01 1.05509E+01 1.05504E+01 1.05500E+01 1.05500E+01
          1.05500E+01 1.05459E+01                                     9.943E+00
 1.50E+04 1.33806E+01 1.34762E+01 1.35526E+01 1.35955E+01 1.36094E+01
          1.35756E+01 1.34678E+01 1.33066E+01 1.31078E+01 1.28923E+01
          1.26847E+01 1.24894E+01 1.23062E+01 1.21338E+01 1.19713E+01
          1.18171E+01 1.16686E+01 1.15188E+01 1.13636E+01 1.12129E+01
          1.10802E+01 1.10210E+01 1.09611E+01 1.09128E+01 1.08705E+01
          1.08603E+01 1.08518E+01 1.08507E+01 1.08499E+01 1.08498E+01
          1.08497E+01 1.08564E+01                                     1.080E+01
 2.00E+04 1.45070E+01 1.46054E+01 1.46728E+01 1.46863E+01 1.46548E+01
          1.45054E+01 1.42747E+01 1.40152E+01 1.37433E+01 1.34712E+01
          1.32127E+01 1.29697E+01 1.27417E+01 1.25257E+01 1.23201E+01
          1.21218E+01 1.19299E+01 1.17413E+01 1.15547E+01 1.13756E+01
          1.12048E+01 1.11183E+01 1.10332E+01 1.09690E+01 1.09105E+01
          1.08958E+01 1.08841E+01 1.08827E+01 1.08817E+01 1.08813E+01
          1.08809E+01 1.08965E+01                                     1.129E+01
 3.00E+04 1.61324E+01 1.61019E+01 1.60523E+01 1.59698E+01 1.58609E+01
          1.55928E+01 1.52578E+01 1.48710E+01 1.44540E+01 1.40367E+01
          1.36503E+01 1.33031E+01 1.29938E+01 1.27170E+01 1.24664E+01
          1.22321E+01 1.20086E+01 1.17835E+01 1.15480E+01 1.13137E+01
          1.10944E+01 1.09879E+01 1.08727E+01 1.07764E+01 1.07008E+01
          1.06822E+01 1.06656E+01 1.06638E+01 1.06625E+01 1.06620E+01
          1.06616E+01 1.06849E+01                                     1.178E+01
 4.00E+04 1.72222E+01 1.71149E+01 1.69883E+01 1.68286E+01 1.66438E+01
          1.62321E+01 1.57648E+01 1.52584E+01 1.47354E+01 1.42260E+01
          1.37607E+01 1.33468E+01 1.29820E+01 1.26583E+01 1.23665E+01
          1.20954E+01 1.18387E+01 1.15840E+01 1.13223E+01 1.10619E+01
          1.08127E+01 1.06901E+01 1.05591E+01 1.04511E+01 1.03639E+01
          1.03425E+01 1.03236E+01 1.03216E+01 1.03200E+01 1.03194E+01
          1.03194E+01 1.03411E+01                                     1.200E+01
 5.00E+04 1.80427E+01 1.78624E+01 1.76635E+01 1.74330E+01 1.71800E+01
          1.66426E+01 1.60635E+01 1.54593E+01 1.48522E+01 1.42704E+01
          1.37436E+01 1.32771E+01 1.28678E+01 1.25052E+01 1.21778E+01
          1.18742E+01 1.15876E+01 1.13072E+01 1.10247E+01 1.07451E+01
          1.04756E+01 1.03437E+01 1.02068E+01 1.00963E+01 1.00007E+01
          9.97727E+00 9.95741E+00 9.95512E+00 9.95332E+00 9.95289E+00
          9.95256E+00 9.96465E+00                                     1.210E+01
 6.00E+04 1.86589E+01 1.84591E+01 1.82290E+01 1.79476E+01 1.76290E+01
          1.69439E+01 1.62226E+01 1.55145E+01 1.48406E+01 1.42193E+01
          1.36696E+01 1.31857E+01 1.27484E+01 1.23414E+01 1.19651E+01
          1.16203E+01 1.13015E+01 1.09996E+01 1.07060E+01 1.04160E+01
          1.01288E+01 9.98910E+00 9.85153E+00 9.74522E+00 9.64251E+00
          9.61737E+00 9.59729E+00 9.59475E+00 9.59280E+00 9.59252E+00
          9.59235E+00 9.59230E+00                                     1.214E+01
 8.00E+04 1.96354E+01 1.93427E+01 1.90127E+01 1.86196E+01 1.81833E+01
          1.72708E+01 1.63598E+01 1.55254E+01 1.47729E+01 1.40937E+01
          1.34806E+01 1.29269E+01 1.24174E+01 1.19414E+01 1.15022E+01
          1.11046E+01 1.07427E+01 1.04078E+01 1.00889E+01 9.77132E+00
          9.45470E+00 9.30838E+00 9.17190E+00 9.06996E+00 8.95928E+00
          8.93225E+00 8.91172E+00 8.90890E+00 8.90672E+00 8.90668E+00
          8.90638E+00 8.88815E+00                                     1.215E+01
 1.00E+05 2.05696E+01 2.00044E+01 1.94416E+01 1.88850E+01 1.83432E+01
          1.73261E+01 1.63827E+01 1.55083E+01 1.46992E+01 1.39516E+01
          1.32635E+01 1.26362E+01 1.20639E+01 1.15396E+01 1.10575E+01
          1.06165E+01 1.02155E+01 9.85243E+00 9.52106E+00 9.19486E+00
          8.85235E+00 8.68445E+00 8.53895E+00 8.44431E+00 8.33389E+00
          8.30086E+00 8.28078E+00 8.27897E+00 8.27620E+00 8.27595E+00
          8.27564E+00 8.25113E+00                                     1.210E+01
 1.50E+05 2.16341E+01 2.08872E+01 2.01509E+01 1.94354E+01 1.87483E+01
          1.74727E+01 1.63109E+01 1.52518E+01 1.42862E+01 1.34097E+01
          1.26183E+01 1.19055E+01 1.12616E+01 1.06750E+01 1.01334E+01
          9.63050E+00 9.16817E+00 8.74186E+00 8.34654E+00 7.96384E+00
          7.58185E+00 7.39988E+00 7.23884E+00 7.12982E+00 7.01121E+00
          6.97940E+00 6.95774E+00 6.95554E+00 6.95307E+00 6.95281E+00
          6.95241E+00 6.94493E+00                                     1.193E+01
 2.00E+05 2.22479E+01 2.13613E+01 2.04948E+01 1.96650E+01 1.88772E+01
          1.74268E+01 1.61214E+01 1.49459E+01 1.38869E+01 1.29346E+01
          1.20830E+01 1.13204E+01 1.06331E+01 1.00069E+01 9.42506E+00
          8.87814E+00 8.36949E+00 7.89825E+00 7.45991E+00 7.04152E+00
          6.63546E+00 6.44254E+00 6.26360E+00 6.13536E+00 6.01263E+00
          5.98403E+00 5.96055E+00 5.95784E+00 5.95580E+00 5.95536E+00
          5.95518E+00 5.96959E+00                                     1.179E+01
 3.00E+05 2.30759E+01 2.19438E+01 2.08559E+01 1.98470E+01 1.89129E+01
          1.72255E+01 1.57468E+01 1.44471E+01 1.33035E+01 1.22879E+01
          1.13778E+01 1.05582E+01 9.81389E+00 9.12966E+00 8.48840E+00
          7.87995E+00 7.30771E+00 6.77796E+00 6.28809E+00 5.82949E+00
          5.39907E+00 5.19643E+00 5.00150E+00 4.85649E+00 4.73043E+00
          4.70045E+00 4.67618E+00 4.67342E+00 4.67116E+00 4.67074E+00
          4.67056E+00 4.67964E+00                                     1.167E+01
 4.00E+05 2.36417E+01 2.23447E+01 2.11116E+01 1.99906E+01 1.89672E+01
          1.71306E+01 1.55430E+01 1.41627E+01 1.29614E+01 1.19021E+01
          1.09516E+01 1.00927E+01 9.31117E+00 8.59251E+00 7.92064E+00
          7.28543E+00 6.68761E+00 6.13038E+00 5.61310E+00 5.12546E+00
          4.66679E+00 4.45247E+00 4.25225E+00 4.10681E+00 3.97244E+00
          3.94076E+00 3.91611E+00 3.91320E+00 3.91071E+00 3.91045E+00
          3.91007E+00 3.90642E+00                                     1.173E+01
 5.00E+05 2.40781E+01 2.26650E+01 2.13314E+01 2.01365E+01 1.90556E+01
          1.71174E+01 1.54559E+01 1.40206E+01 1.27772E+01 1.16843E+01
          1.07034E+01 9.81528E+00 9.00633E+00 8.26267E+00 7.56881E+00
          6.91463E+00 6.29960E+00 5.72499E+00 5.19111E+00 4.68691E+00
          4.20904E+00 3.98414E+00 3.77394E+00 3.62111E+00 3.48044E+00
          3.44762E+00 3.42220E+00 3.41917E+00 3.41654E+00 3.41629E+00
          3.41586E+00 3.41133E+00                                     1.188E+01
 6.00E+05 2.44406E+01 2.29407E+01 2.15337E+01 2.02873E+01 1.91673E+01
          1.71563E+01 1.54413E+01 1.39676E+01 1.26933E+01 1.15740E+01
          1.05689E+01 9.65801E+00 8.82772E+00 8.06450E+00 7.35321E+00
          6.68382E+00 6.05521E+00 5.46768E+00 4.92107E+00 4.40521E+00
          3.91193E+00 3.67728E+00 3.45601E+00 3.29381E+00 3.14700E+00
          3.11293E+00 3.08631E+00 3.08316E+00 3.08043E+00 3.08012E+00
          3.07984E+00 3.07793E+00                                     1.209E+01
 8.00E+05 2.50374E+01 2.34164E+01 2.19093E+01 2.05970E+01 1.94296E+01
          1.73263E+01 1.55429E+01 1.40215E+01 1.27078E+01 1.15524E+01
          1.05129E+01 9.56905E+00 8.70759E+00 7.91504E+00 7.17658E+00
          6.48235E+00 5.83065E+00 5.22111E+00 4.65147E+00 4.11228E+00
          3.59029E+00 3.33779E+00 3.09643E+00 2.91672E+00 2.75497E+00
          2.71705E+00 2.68712E+00 2.68359E+00 2.68057E+00 2.68018E+00
          2.67989E+00 2.68126E+00                                     1.261E+01
 1.00E+06 2.55184E+01 2.38193E+01 2.22492E+01 2.08989E+01 1.97065E+01
          1.75533E+01 1.57342E+01 1.41869E+01 1.28509E+01 1.16736E+01
          1.06118E+01 9.64605E+00 8.76294E+00 7.94901E+00 7.18944E+00
          6.47428E+00 5.80174E+00 5.17108E+00 4.57853E+00 4.01247E+00
          3.46085E+00 3.19084E+00 2.93056E+00 2.73410E+00 2.55376E+00
          2.51068E+00 2.47655E+00 2.47253E+00 2.46913E+00 2.46868E+00
          2.46834E+00 2.46910E+00                                     1.318E+01
 1.50E+06 2.63508E+01 2.45545E+01 2.29108E+01 2.15254E+01 2.03165E+01
          1.81231E+01 1.62832E+01 1.47097E+01 1.33461E+01 1.21398E+01
          1.10489E+01 1.00537E+01 9.14035E+00 8.29443E+00 7.49958E+00
          6.74503E+00 6.02933E+00 5.35207E+00 4.70727E+00 4.07607E+00
          3.44640E+00 3.13037E+00 2.81565E+00 2.56822E+00 2.33426E+00
          2.27680E+00 2.23070E+00 2.22524E+00 2.22073E+00 2.22014E+00
          2.21967E+00 2.21911E+00                                     1.453E+01
 2.00E+06 2.68575E+01 2.50300E+01 2.33688E+01 2.19878E+01 2.07926E+01
          1.86142E+01 1.67874E+01 1.52120E+01 1.38392E+01 1.26209E+01
          1.15187E+01 1.05125E+01 9.58720E+00 8.72671E+00 7.91220E+00
          7.13143E+00 6.38376E+00 5.66984E+00 4.98249E+00 4.29610E+00
          3.58935E+00 3.22548E+00 2.84827E+00 2.53998E+00 2.24802E+00
          2.17671E+00 2.11933E+00 2.11235E+00 2.10643E+00 2.10566E+00
          2.10512E+00 2.10607E+00                                     1.569E+01
 3.00E+06 2.74304E+01 2.55787E+01 2.39155E+01 2.25692E+01 2.14274E+01
          1.93438E+01 1.75818E+01 1.60442E+01 1.46882E+01 1.34711E+01
