 PENELOPE (v. 2012)  Material data file ...............
 Material: Pure-Cs2O                                                     
 Mass density = 4.65000000E+00 g/cm**3
 Number of elements in the molecule =  2
   atomic number = 55,  atoms/molecule = 1.00000000E+00
   atomic number =  8,  atoms/molecule = 4.99114776E-01
 Mean excitation energy = 4.36834126E+02 eV
 Number of oscillators = 17 (E/P inelastic model)
   1  1.00000000E+00  0.00000000E+00  5.23493043E+00   0  30
   2  1.09946887E+01  1.66281517E+01  2.46588720E+01   0  30
   3  6.00000000E+00  7.90000000E+01  1.18116744E+02  55  14
   4  4.00000000E+00  8.10000000E+01  1.20932856E+02  55  13
   5  4.00000000E+00  1.64000000E+02  2.44388750E+02  55  12
   6  2.00000000E+00  1.74000000E+02  2.59202319E+02  55  11
   7  2.00000000E+00  2.33000000E+02  3.47051010E+02  55  10
   8  9.98229552E-01  5.38000000E+02  8.01235069E+02   8   1
   9  6.00000000E+00  7.28000000E+02  1.08423428E+03  55   9
  10  4.00000000E+00  7.42000000E+02  1.10506648E+03  55   8
  11  4.00000000E+00  1.00000000E+03  1.48928790E+03  55   7
  12  2.00000000E+00  1.06800000E+03  1.59054476E+03  55   6
  13  2.00000000E+00  1.22000000E+03  1.81691136E+03  55   5
  14  4.00000000E+00  5.01400000E+03  7.46717138E+03  55   4
  15  2.00000000E+00  5.36200000E+03  7.98543243E+03  55   3
  16  2.00000000E+00  5.71700000E+03  8.51412078E+03  55   2
  17  2.00000000E+00  3.59870000E+04  5.35941209E+04  55   1
 Number of shells = 17 (Compton IA model)
   1  1.00000000E+00  0.00000000E+00  2.53977603E+00   0  30
   2  1.09946887E+01  1.66281517E+01  5.27374339E-01   0  30
   3  6.00000000E+00  7.90000000E+01  1.45496000E-01  55  14
   4  4.00000000E+00  8.10000000E+01  1.43730000E-01  55  13
   5  4.00000000E+00  1.64000000E+02  1.75545000E-01  55  12
   6  2.00000000E+00  1.74000000E+02  1.69659000E-01  55  11
   7  2.00000000E+00  2.33000000E+02  2.64028000E-01  55  10
   8  9.98229552E-01  5.38000000E+02  1.13183000E-01   8   1
   9  6.00000000E+00  7.28000000E+02  4.93943000E-02  55   9
  10  4.00000000E+00  7.42000000E+02  4.88083000E-02  55   8
  11  4.00000000E+00  1.00000000E+03  7.35554000E-02  55   7
  12  2.00000000E+00  1.06800000E+03  7.09897000E-02  55   6
  13  2.00000000E+00  1.22000000E+03  1.19766000E-01  55   5
  14  4.00000000E+00  5.01400000E+03  2.73390000E-02  55   4
  15  2.00000000E+00  5.36200000E+03  2.59491000E-02  55   3
  16  2.00000000E+00  5.71700000E+03  5.22914000E-02  55   2
  17  2.00000000E+00  3.59870000E+04  1.46198000E-02  55   1
 *** RELAX:  Z = 55,  no. of shells = 18,  no. of transitions = 885
   1 1s1/2 2  3.59870E+04  1.46198E-02
   2 2s1/2 2  5.71700E+03  5.22914E-02
   3 2p1/2 2  5.36200E+03  2.59491E-02
   4 2p3/2 4  5.01400E+03  2.73390E-02
   5 3s1/2 2  1.22000E+03  1.19766E-01
   6 3p1/2 2  1.06800E+03  7.09897E-02
   7 3p3/2 4  1.00000E+03  7.35554E-02
   8 3d3/2 4  7.42000E+02  4.88083E-02
   9 3d5/2 6  7.28000E+02  4.93943E-02
  10 4s1/2 2  2.33000E+02  2.64028E-01
  11 4p1/2 2  1.74000E+02  1.69659E-01
  12 4p3/2 4  1.64000E+02  1.75545E-01
  13 4d3/2 4  8.10000E+01  1.43730E-01
  14 4d5/2 6  7.90000E+01  1.45496E-01
  17 5s1/2 2  2.50000E+01  7.19762E-01
  18 5p1/2 2  1.40000E+01  4.98199E-01
  19 5p3/2 4  1.23000E+01  5.21847E-01
  24 6s1/2 1  3.89000E+00  2.74010E+00
   1  3  0  2.57590E-01  3.06254E+04
   1  4  0  4.75711E-01  3.09731E+04
   1  6  0  4.50681E-02  3.49197E+04
   1  7  0  8.73561E-02  3.49873E+04
   1  8  0  4.66391E-04  3.52449E+04
   1  9  0  6.35151E-04  3.52586E+04
   1 11  0  9.48262E-03  3.58030E+04
   1 12  0  1.84830E-02  3.58172E+04
   1 13  0  9.09342E-05  3.58994E+04
   1 14  0  1.23610E-04  3.59018E+04
   1 18  0  1.16990E-03  3.59667E+04
   1 19  0  2.21200E-03  3.59686E+04
   1  2  2  8.24482E-03  2.46152E+04
   1  2  3  9.83301E-03  2.49369E+04
   1  2  4  1.15824E-02  2.52940E+04
   1  2  5  2.95775E-03  2.91037E+04
   1  2  6  1.89175E-03  2.92406E+04
   1  2  7  2.25698E-03  2.93094E+04
   1  2  8  1.47986E-04  2.95524E+04
   1  2  9  1.59373E-04  2.95671E+04
   1  2 10  6.47312E-04  3.00682E+04
   1  2 11  3.91059E-04  3.01181E+04
   1  2 12  4.64273E-04  3.01323E+04
   1  2 13  2.79008E-05  3.02145E+04
   1  2 14  2.96863E-05  3.02169E+04
   1  2 17  1.00447E-04  3.02691E+04
   1  2 18  4.75444E-05  3.02818E+04
   1  2 19  5.44630E-05  3.02837E+04
   1  2 24  3.34817E-06  3.02964E+04
   1  3  3  1.17047E-03  2.52586E+04
   1  3  4  2.45362E-02  2.56157E+04
   1  3  5  1.46720E-03  2.94254E+04
   1  3  6  4.03773E-04  2.95623E+04
   1  3  7  3.99539E-03  2.96311E+04
   1  3  8  1.75443E-04  2.98741E+04
   1  3  9  5.84125E-04  2.98888E+04
   1  3 10  3.09148E-04  3.03899E+04
   1  3 11  8.19168E-05  3.04398E+04
   1  3 12  7.94621E-04  3.04540E+04
   1  3 13  3.23650E-05  3.05362E+04
   1  3 14  1.07815E-04  3.05386E+04
   1  3 17  4.75437E-05  3.05908E+04
   1  3 18  9.82111E-06  3.06035E+04
   1  3 19  9.26268E-05  3.06054E+04
   1  3 24  1.56235E-06  3.06181E+04
   1  4  4  1.21928E-02  2.59728E+04
   1  4  5  1.68583E-03  2.97825E+04
   1  4  6  3.89036E-03  2.99194E+04
   1  4  7  4.07823E-03  2.99882E+04
   1  4  8  6.93286E-04  3.02312E+04
   1  4  9  6.36145E-04  3.02459E+04
   1  4 10  3.53337E-04  3.07470E+04
   1  4 11  7.76533E-04  3.07969E+04
   1  4 12  8.16047E-04  3.08111E+04
   1  4 13  1.28562E-04  3.08933E+04
   1  4 14  1.17626E-04  3.08957E+04
   1  4 17  5.44625E-05  3.09479E+04
   1  4 18  9.37424E-05  3.09606E+04
   1  4 19  9.53094E-05  3.09625E+04
   1  4 24  1.78580E-06  3.09752E+04
   1  5  5  2.61379E-04  3.35922E+04
   1  5  6  2.84810E-04  3.37291E+04
   1  5  7  3.31467E-04  3.37979E+04
   1  5  8  2.05354E-05  3.40409E+04
   1  5  9  2.14281E-05  3.40556E+04
   1  5 10  1.14060E-04  3.45567E+04
   1  5 11  5.89270E-05  3.46066E+04
   1  5 12  6.83032E-05  3.46208E+04
   1  5 13  3.79457E-06  3.47030E+04
   1  5 14  4.01771E-06  3.47054E+04
   1  5 17  1.76327E-05  3.47576E+04
   1  5 18  7.14275E-06  3.47703E+04
   1  5 19  8.03561E-06  3.47722E+04
   1  5 24  6.69627E-07  3.47849E+04
   1  6  6  3.34803E-05  3.38660E+04
   1  6  7  6.44147E-04  3.39348E+04
   1  6  8  2.20974E-05  3.41778E+04
   1  6  9  7.25403E-05  3.41925E+04
   1  6 10  6.00414E-05  3.46936E+04
   1  6 11  1.36151E-05  3.47435E+04
   1  6 12  1.28557E-04  3.47577E+04
   1  6 13  4.01752E-06  3.48399E+04
   1  6 14  1.33917E-05  3.48423E+04
   1  6 17  9.37391E-06  3.48945E+04
   1  6 18  1.56230E-06  3.49072E+04
   1  6 19  1.49537E-05  3.49091E+04
   1  6 24  2.23208E-07  3.49218E+04
   1  7  7  3.42386E-04  3.40036E+04
   1  7  8  9.19617E-05  3.42466E+04
   1  7  9  8.23640E-05  3.42613E+04
   1  7 10  6.96393E-05  3.47625E+04
   1  7 11  1.29021E-04  3.48123E+04
   1  7 12  1.37047E-04  3.48266E+04
   1  7 13  1.71864E-05  3.49087E+04
   1  7 14  1.54010E-05  3.49111E+04
   1  7 17  1.07138E-05  3.49633E+04
   1  7 18  1.56234E-05  3.49761E+04
   1  7 19  1.60713E-05  3.49779E+04
   1  7 24  4.46407E-07  3.49906E+04
   1  8  9  1.07622E-05  3.45043E+04
   1  8 10  4.25999E-06  3.50054E+04
   1  8 11  4.25999E-06  3.50553E+04
   1  8 12  1.77119E-05  3.50695E+04
   1  8 14  2.01798E-06  3.51541E+04
   1  8 17  6.72634E-07  3.52063E+04
   1  8 18  4.48422E-07  3.52190E+04
   1  8 19  2.01798E-06  3.52209E+04
   1  9  9  2.72082E-06  3.45190E+04
   1  9 10  4.53461E-06  3.50202E+04
   1  9 11  1.40586E-05  3.50700E+04
   1  9 12  1.58702E-05  3.50843E+04
   1  9 13  2.04065E-06  3.51664E+04
   1  9 14  9.06902E-07  3.51688E+04
   1  9 17  6.80192E-07  3.52210E+04
   1  9 18  1.58702E-06  3.52338E+04
   1  9 19  1.81399E-06  3.52356E+04
   1 10 10  1.21701E-05  3.55213E+04
   1 10 11  1.21701E-05  3.55712E+04
   1 10 12  1.39095E-05  3.55854E+04
   1 10 13  8.69280E-07  3.56675E+04
   1 10 14  8.69280E-07  3.56699E+04
   1 10 17  3.69454E-06  3.57222E+04
   1 10 18  1.52119E-06  3.57349E+04
   1 10 19  1.73874E-06  3.57367E+04
   1 10 24  2.17334E-07  3.57494E+04
   1 11 11  1.29261E-06  3.56211E+04
   1 11 12  2.47748E-05  3.56353E+04
   1 11 13  8.61731E-07  3.57174E+04
   1 11 14  2.36983E-06  3.57198E+04
   1 11 17  1.93901E-06  3.57721E+04
   1 11 18  2.15446E-07  3.57848E+04
   1 11 19  2.80067E-06  3.57866E+04
   1 12 12  1.31390E-05  3.56495E+04
   1 12 13  3.23093E-06  3.57316E+04
   1 12 14  2.80009E-06  3.57340E+04
   1 12 17  2.15402E-06  3.57863E+04
   1 12 18  3.01551E-06  3.57990E+04
   1 12 19  3.01551E-06  3.58008E+04
   1 13 14  4.46397E-07  3.58162E+04
   1 13 17  2.23208E-07  3.58684E+04
   1 13 19  4.46397E-07  3.58830E+04
   1 14 17  2.22678E-07  3.58708E+04
   1 14 18  2.22678E-07  3.58835E+04
   1 14 19  4.45336E-07  3.58853E+04
   1 17 17  2.97594E-07  3.59231E+04
   1 17 18  2.97594E-07  3.59358E+04
   1 17 19  2.97594E-07  3.59376E+04
   1 18 19  4.46411E-07  3.59503E+04
   1 19 19  2.23210E-07  3.59521E+04
   2  3  0  1.97728E-05  3.21700E+02
   2  4  0  4.06196E-04  6.78800E+02
   2  6  0  1.47019E-02  4.64945E+03
   2  7  0  2.29628E-02  4.71685E+03
   2  8  0  2.27678E-04  4.97521E+03
   2  9  0  3.40117E-04  5.00272E+03
   2 11  0  3.23707E-03  5.50293E+03
   2 12  0  5.20245E-03  5.51714E+03
   2 13  0  2.86717E-05  5.59929E+03
   2 14  0  4.36686E-05  5.60166E+03
   2 18  0  4.28926E-04  5.66663E+03
   2 19  0  6.74753E-04  5.66847E+03
   2  3 10  5.60754E-02  8.98400E+01
   2  3 11  4.06257E-02  1.39730E+02
   2  3 12  5.11320E-02  1.53940E+02
   2  3 13  1.32726E-02  2.36090E+02
   2  3 14  2.17894E-02  2.38460E+02
   2  3 17  8.38881E-03  2.90730E+02
   2  3 18  4.63842E-03  3.03430E+02
   2  3 19  5.64980E-03  3.05270E+02
   2  3 24  2.75960E-04  3.18010E+02
   2  4 10  7.26278E-02  4.46940E+02
   2  4 11  3.16058E-02  4.96830E+02
   2  4 12  5.90973E-02  5.11040E+02
   2  4 13  6.34053E-02  5.93190E+02
   2  4 14  8.13422E-02  5.95560E+02
   2  4 17  1.08776E-02  6.47830E+02
   2  4 18  3.69187E-03  6.60530E+02
   2  4 19  6.75107E-03  6.62370E+02
   2  4 24  3.57724E-04  6.75110E+02
   2  5  5  1.32248E-02  3.29210E+03
   2  5  6  2.62760E-02  3.42900E+03
   2  5  7  4.83450E-02  3.49782E+03
   2  5  8  3.80041E-02  3.74080E+03
   2  5  9  5.35467E-02  3.75552E+03
   2  5 10  4.93910E-03  4.25664E+03
   2  5 11  5.31963E-03  4.30653E+03
   2  5 12  9.71567E-03  4.32074E+03
   2  5 13  6.09394E-03  4.40289E+03
   2  5 14  8.54166E-03  4.40526E+03
   2  5 17  7.49282E-04  4.45753E+03
   2  5 18  6.43122E-04  4.47023E+03
   2  5 19  1.13448E-03  4.47207E+03
   2  5 24  2.43728E-05  4.48481E+03
   2  6  6  1.48598E-04  3.56590E+03
   2  6  7  9.49751E-04  3.63472E+03
   2  6  8  1.09751E-03  3.87770E+03
   2  6  9  1.41019E-02  3.89242E+03
   2  6 10  3.93958E-03  4.39354E+03
   2  6 11  3.06620E-05  4.44343E+03
   2  6 12  1.80045E-04  4.45764E+03
   2  6 13  1.76893E-04  4.53979E+03
   2  6 14  1.50957E-03  4.54216E+03
   2  6 17  5.70791E-04  4.59443E+03
   2  6 18  3.14479E-06  4.60713E+03
   2  6 19  2.04416E-05  4.60897E+03
   2  6 24  1.88687E-05  4.62171E+03
   2  7  7  1.13372E-03  3.70354E+03
   2  7  8  9.52214E-03  3.94652E+03
   2  7  9  6.44449E-03  3.96124E+03
   2  7 10  7.24627E-03  4.46236E+03
   2  7 11  1.80040E-04  4.51225E+03
   2  7 12  3.46711E-04  4.52646E+03
   2  7 13  8.77385E-04  4.60861E+03
   2  7 14  6.14025E-04  4.61098E+03
   2  7 17  1.04961E-03  4.66325E+03
   2  7 18  2.12270E-05  4.67595E+03
   2  7 19  3.85224E-05  4.67779E+03
   2  7 24  3.45928E-05  4.69053E+03
   2  8  8  2.08812E-03  4.18950E+03
   2  8  9  7.59775E-02  4.20422E+03
   2  8 10  5.38305E-03  4.70534E+03
   2  8 11  2.89333E-04  4.75523E+03
   2  8 12  1.94509E-03  4.76944E+03
   2  8 13  6.64348E-04  4.85159E+03
   2  8 14  8.95723E-03  4.85396E+03
   2  8 17  7.72834E-04  4.90623E+03
   2  8 18  3.61664E-05  4.91893E+03
   2  8 19  2.27220E-04  4.92077E+03
   2  8 24  2.51582E-05  4.93351E+03
   2  9  9  2.13410E-02  4.21894E+03
   2  9 10  7.63019E-03  4.72006E+03
   2  9 11  2.60546E-03  4.76995E+03
   2  9 12  1.38138E-03  4.78416E+03
   2  9 13  8.86360E-03  4.86631E+03
   2  9 14  5.25891E-03  4.86868E+03
   2  9 17  1.09751E-03  4.92095E+03
   2  9 18  3.10544E-04  4.93365E+03
   2  9 19  1.62739E-04  4.93549E+03
   2  9 24  3.61665E-05  4.94823E+03
   2 10 10  4.37907E-04  5.22118E+03
   2 10 11  7.98774E-04  5.27107E+03
   2 10 12  1.45765E-03  5.28528E+03
   2 10 13  8.61668E-04  5.36743E+03
   2 10 14  1.21233E-03  5.36980E+03
   2 10 17  1.31301E-04  5.42207E+03
   2 10 18  9.66972E-05  5.43477E+03
   2 10 19  1.70607E-04  5.43661E+03
   2 10 24  4.71702E-06  5.44935E+03
   2 11 11  1.57238E-06  5.32096E+03
   2 11 12  3.45934E-05  5.33517E+03
   2 11 13  3.93090E-05  5.41732E+03
   2 11 14  2.87756E-04  5.41969E+03
   2 11 17  1.15573E-04  5.47196E+03
   2 11 19  3.93090E-06  5.48650E+03
   2 11 24  3.93090E-06  5.49924E+03
   2 12 12  2.70932E-05  5.34938E+03
   2 12 13  1.92840E-04  5.43153E+03
   2 12 14  1.40243E-04  5.43390E+03
   2 12 17  2.14357E-04  5.48617E+03
   2 12 18  3.98418E-06  5.49887E+03
   2 12 19  6.37507E-06  5.50071E+03
   2 12 24  7.17186E-06  5.51345E+03
   2 13 13  5.20161E-05  5.51368E+03
   2 13 14  1.15166E-03  5.51605E+03
   2 13 17  1.27597E-04  5.56832E+03
   2 13 18  4.87621E-06  5.58102E+03
   2 13 19  2.35696E-05  5.58286E+03
   2 13 24  4.06355E-06  5.59560E+03
   2 14 14  3.54855E-04  5.51842E+03
   2 14 17  1.80705E-04  5.57069E+03
   2 14 18  3.59783E-05  5.58339E+03
   2 14 19  1.71718E-05  5.58523E+03
   2 14 24  5.72359E-06  5.59797E+03
   2 17 17  8.77218E-06  5.62296E+03
   2 17 18  1.21448E-05  5.63566E+03
   2 17 19  2.09169E-05  5.63750E+03
   2 17 24  6.74749E-07  5.65024E+03
   2 18 19  7.86192E-07  5.65020E+03
   2 18 24  7.86192E-07  5.66294E+03
   2 19 24  7.86212E-07  5.66478E+03
   3  4  0  8.71309E-08  3.57100E+02
   3  5  0  4.13494E-03  4.14213E+03
   3  7  0  6.16116E-05  4.36090E+03
   3  8  0  7.98698E-02  4.61983E+03
   3 10  0  6.10766E-04  5.13134E+03
   3 12  0  8.19408E-06  5.19544E+03
   3 13  0  1.24211E-02  5.27759E+03
   3 17  0  7.78028E-05  5.33223E+03
   3 19  0  1.06341E-06  5.34677E+03
   3  4 10  1.14012E-02  1.25240E+02
   3  4 11  5.14175E-02  1.75130E+02
   3  4 12  1.76201E-02  1.89340E+02
   3  4 13  6.46739E-02  2.71490E+02
   3  4 14  2.39677E-02  2.73860E+02
   3  4 17  1.59369E-03  3.26130E+02
   3  4 18  5.92872E-03  3.38830E+02
   3  4 19  2.04704E-03  3.40670E+02
   3  4 24  5.19185E-05  3.53410E+02
   3  5  5  1.03279E-03  2.97040E+03
   3  5  6  2.51232E-02  3.10730E+03
   3  5  7  2.41421E-03  3.17612E+03
   3  5  8  1.95522E-03  3.41910E+03
   3  5  9  3.36540E-03  3.43382E+03
   3  5 10  3.58807E-04  3.93494E+03
   3  5 11  3.50465E-03  3.98483E+03
   3  5 12  4.31107E-04  3.99904E+03
   3  5 13  2.26219E-04  4.08119E+03
   3  5 14  3.38402E-04  4.08356E+03
   3  5 17  5.37716E-05  4.13583E+03
   3  5 18  3.98669E-04  4.14853E+03
   3  5 19  4.91384E-05  4.15037E+03
   3  5 24  1.85421E-06  4.16311E+03
   3  6  6  2.47244E-02  3.24420E+03
   3  6  7  7.68474E-02  3.31302E+03
   3  6  8  4.07942E-02  3.55600E+03
   3  6  9  6.95158E-02  3.57072E+03
   3  6 10  5.60237E-03  4.07184E+03
   3  6 11  8.58602E-03  4.12173E+03
   3  6 12  1.51693E-02  4.13594E+03
   3  6 13  6.52941E-03  4.21809E+03
   3  6 14  1.11095E-02  4.22046E+03
   3  6 17  8.72396E-04  4.27273E+03
   3  6 18  1.01608E-03  4.28543E+03
   3  6 19  1.76705E-03  4.28727E+03
   3  6 24  2.87407E-05  4.30001E+03
   3  7  7  2.00798E-03  3.38184E+03
   3  7  8  4.78292E-02  3.62482E+03
   3  7  9  6.49972E-03  3.63954E+03
   3  7 10  4.61691E-04  4.14066E+03
   3  7 11  1.11064E-02  4.19055E+03
   3  7 12  6.71233E-04  4.20476E+03
   3  7 13  6.59711E-03  4.28691E+03
   3  7 14  8.39030E-04  4.28928E+03
   3  7 17  7.04585E-05  4.34155E+03
   3  7 18  1.27010E-03  4.35425E+03
   3  7 19  7.60222E-05  4.35609E+03
   3  7 24  1.85416E-06  4.36883E+03
   3  8  8  4.35664E-02  3.86780E+03
   3  8  9  1.86542E-01  3.88252E+03
   3  8 10  4.45927E-04  4.38364E+03
   3  8 11  5.87214E-03  4.43353E+03
   3  8 12  8.90575E-03  4.44774E+03
   3  8 13  1.19817E-02  4.52989E+03
   3  8 14  2.74043E-02  4.53226E+03
   3  8 17  6.95321E-05  4.58453E+03
   3  8 18  6.74917E-04  4.59723E+03
   3  8 19  1.02814E-03  4.59907E+03
   3  8 24  1.85416E-06  4.61181E+03
   3  9  9  8.90104E-03  3.89724E+03
   3  9 10  6.34129E-04  4.39836E+03
   3  9 11  8.94188E-03  4.44825E+03
   3  9 12  1.10883E-03  4.46246E+03
   3  9 13  2.18457E-02  4.54461E+03
   3  9 14  2.38538E-03  4.54698E+03
   3  9 17  9.54951E-05  4.59925E+03
   3  9 18  1.00217E-03  4.61195E+03
   3  9 19  1.26085E-04  4.61379E+03
   3  9 24  2.78128E-06  4.62653E+03
   3 10 10  3.17120E-05  4.89948E+03
   3 10 11  8.13937E-04  4.94937E+03
   3 10 12  8.55287E-05  4.96358E+03
   3 10 13  5.18937E-05  5.04573E+03
   3 10 14  6.72668E-05  5.04810E+03
   3 10 17  9.61014E-06  5.10037E+03
   3 10 18  9.22532E-05  5.11307E+03
   3 10 19  9.61014E-06  5.11491E+03
   3 11 11  6.76917E-04  4.99926E+03
   3 11 12  2.07914E-03  5.01347E+03
   3 11 13  8.78208E-04  5.09562E+03
   3 11 14  1.36437E-03  5.09799E+03
   3 11 17  1.16039E-04  5.15026E+03
   3 11 18  1.59115E-04  5.16296E+03
   3 11 19  2.41753E-04  5.16480E+03
   3 11 24  3.51629E-06  5.17754E+03
   3 12 12  5.62834E-05  5.02768E+03
   3 12 13  1.23358E-03  5.10983E+03
   3 12 14  1.46700E-04  5.11220E+03
   3 12 17  1.29176E-05  5.16447E+03
   3 12 18  2.49121E-04  5.17717E+03
   3 12 19  1.29176E-05  5.17901E+03
   3 13 13  8.38872E-04  5.19198E+03
   3 13 14  3.40041E-03  5.19435E+03
   3 13 17  7.62647E-06  5.24662E+03
   3 13 18  1.09629E-04  5.25932E+03
   3 13 19  1.46811E-04  5.26116E+03
   3 14 14  1.69903E-04  5.19672E+03
   3 14 17  1.07405E-05  5.24899E+03
   3 14 18  1.69903E-04  5.26169E+03
   3 14 19  1.75763E-05  5.26353E+03
   3 17 17  9.45652E-07  5.30126E+03
   3 17 18  1.41843E-05  5.31396E+03
   3 17 19  1.89121E-06  5.31580E+03
   3 18 18  1.24405E-05  5.32666E+03
   3 18 19  3.61910E-05  5.32850E+03
   4  5  0  7.49529E-03  3.79499E+03
   4  6  0  4.21800E-05  3.94650E+03
   4  7  0  3.92130E-05  4.01370E+03
   4  8  0  7.89869E-03  4.27231E+03
   4  9  0  6.99779E-02  4.28649E+03
   4 10  0  6.90749E-04  4.77424E+03
   4 11  0  3.99380E-06  4.82413E+03
   4 12  0  3.83990E-06  4.83834E+03
   4 13  0  1.19450E-03  4.92049E+03
   4 14  0  1.06640E-02  4.92286E+03
   4 17  0  1.02540E-04  4.97513E+03
   4 18  0  5.26310E-07  4.98783E+03
   4 19  0  4.95950E-07  4.98967E+03
   4  5  5  1.35482E-03  2.61330E+03
   4  5  6  9.36134E-04  2.75020E+03
   4  5  7  2.91282E-02  2.81902E+03
   4  5  8  2.84977E-03  3.06200E+03
   4  5  9  3.24929E-03  3.07672E+03
   4  5 10  4.72106E-04  3.57784E+03
   4  5 11  1.57030E-04  3.62773E+03
   4  5 12  4.06173E-03  3.64194E+03
   4  5 13  2.48631E-04  3.72409E+03
   4  5 14  2.61716E-04  3.72646E+03
   4  5 17  7.04600E-05  3.77873E+03
   4  5 18  1.81187E-05  3.79143E+03
   4  5 19  4.46952E-04  3.79327E+03
   4  5 24  2.01325E-06  3.80601E+03
   4  6  6  3.02982E-04  2.88710E+03
   4  6  7  4.84422E-02  2.95592E+03
   4  6  8  3.09831E-03  3.19890E+03
   4  6  9  2.78825E-02  3.21362E+03
   4  6 10  1.75144E-04  3.71474E+03
   4  6 11  1.02672E-04  3.76463E+03
   4  6 12  6.99098E-03  3.77884E+03
   4  6 13  4.63035E-04  3.86099E+03
   4  6 14  3.62276E-03  3.86336E+03
   4  6 17  2.61719E-05  3.91563E+03
   4  6 18  1.20785E-05  3.92833E+03
   4  6 19  7.74087E-04  3.93017E+03
   4  6 24  1.00661E-06  3.94291E+03
   4  7  7  6.77375E-02  3.02474E+03
   4  7  8  6.81525E-02  3.26772E+03
   4  7  9  1.01957E-01  3.28244E+03
   4  7 10  6.42821E-03  3.78356E+03
   4  7 11  9.41018E-03  3.83345E+03
   4  7 12  2.31033E-02  3.84766E+03
   4  7 13  1.05110E-02  3.92981E+03
   4  7 14  1.55409E-02  3.93218E+03
   4  7 17  9.99578E-04  3.98445E+03
   4  7 18  1.13038E-03  3.99715E+03
   4  7 19  2.63632E-03  3.99899E+03
   4  7 24  3.32185E-05  4.01173E+03
   4  8  8  9.75679E-03  3.51070E+03
   4  8  9  1.87316E-01  3.52542E+03
   4  8 10  5.89864E-04  4.02654E+03
   4  8 11  5.99957E-04  4.07643E+03
   4  8 12  9.17934E-03  4.09064E+03
   4  8 13  2.68270E-03  4.17279E+03
   4  8 14  2.22132E-02  4.17516E+03
   4  8 17  9.05935E-05  4.22743E+03
   4  8 18  7.24776E-05  4.24013E+03
   4  8 19  1.00564E-03  4.24197E+03
   4  8 24  3.01988E-06  4.25471E+03
   4  9  9  1.26924E-01  3.54014E+03
   4  9 10  7.13693E-04  4.04126E+03
   4  9 11  5.04412E-03  4.09115E+03
   4  9 12  1.53188E-02  4.10536E+03
   4  9 13  2.60245E-02  4.18751E+03
   4  9 14  3.34672E-02  4.18988E+03
   4  9 17  1.10734E-04  4.24215E+03
   4  9 18  5.98927E-04  4.25485E+03
   4  9 19  1.71432E-03  4.25669E+03
   4  9 24  4.02642E-06  4.26943E+03
   4 10 10  4.30451E-05  4.54238E+03
   4 10 11  3.14976E-05  4.59227E+03
   4 10 12  9.36523E-04  4.60648E+03
   4 10 13  5.77458E-05  4.68863E+03
   4 10 14  6.40459E-05  4.69100E+03
   4 10 17  1.25981E-05  4.74327E+03
   4 10 18  3.14976E-06  4.75597E+03
   4 10 19  1.02893E-04  4.75781E+03
   4 11 11  7.61805E-06  4.64216E+03
   4 11 12  1.28269E-03  4.65637E+03
   4 11 13  8.28426E-05  4.73852E+03
   4 11 14  6.37995E-04  4.74089E+03
   4 11 17  4.76103E-06  4.79316E+03
   4 11 18  1.90452E-06  4.80586E+03
   4 11 19  1.41888E-04  4.80770E+03
   4 12 12  1.74867E-03  4.67058E+03
   4 12 13  1.30091E-03  4.75273E+03
   4 12 14  2.11707E-03  4.75510E+03
   4 12 17  1.28334E-04  4.80737E+03
   4 12 18  1.49568E-04  4.82007E+03
   4 12 19  3.97033E-04  4.82191E+03
   4 12 24  4.61630E-06  4.83465E+03
   4 13 13  1.84136E-04  4.83488E+03
   4 13 14  3.24353E-03  4.83725E+03
   4 13 17  8.22979E-06  4.88952E+03
   4 13 18  1.02871E-05  4.90222E+03
   4 13 19  1.58419E-04  4.90406E+03
   4 14 14  2.35957E-03  4.83962E+03
   4 14 17  1.07205E-05  4.89189E+03
   4 14 18  8.57656E-05  4.90459E+03
   4 14 19  2.74442E-04  4.90643E+03
   4 17 17  1.37992E-06  4.94416E+03
   4 17 18  1.37992E-06  4.95686E+03
   4 17 19  2.06981E-05  4.95870E+03
   4 18 19  2.05700E-05  4.97140E+03
   4 19 19  2.81088E-05  4.97324E+03
   4 19 24  1.17118E-06  4.98598E+03
   5  6  0  1.23737E-05  1.36900E+02
   5  7  0  8.75325E-05  2.05720E+02
   5 11  0  2.43176E-04  1.01443E+03
   5 12  0  3.26311E-04  1.02864E+03
   5 18  0  3.53939E-05  1.17813E+03
   5 19  0  4.77344E-05  1.17997E+03
   5  6 13  9.00842E-02  5.12900E+01
   5  6 14  1.23569E-01  5.36600E+01
   5  6 17  9.68314E-03  1.05930E+02
   5  6 18  7.52615E-03  1.18630E+02
   5  6 19  1.26409E-02  1.20470E+02
   5  6 24  3.14485E-04  1.33210E+02
   5  7 13  6.57840E-02  1.20110E+02
   5  7 14  9.57370E-02  1.22480E+02
   5  7 17  1.30920E-02  1.74750E+02
   5  7 18  1.05428E-02  1.87450E+02
   5  7 19  1.60076E-02  1.89290E+02
   5  7 24  4.31863E-04  2.02030E+02
   5  8 10  3.51244E-02  2.16840E+02
   5  8 11  7.49716E-03  2.66730E+02
   5  8 12  5.93632E-03  2.80940E+02
   5  8 13  9.76973E-03  3.63090E+02
   5  8 14  1.20543E-02  3.65460E+02
   5  8 17  3.77048E-03  4.17730E+02
   5  8 18  7.23910E-04  4.30430E+02
   5  8 19  5.43809E-04  4.32270E+02
   5  8 24  1.19128E-04  4.45010E+02
   5  9 10  5.13004E-02  2.31560E+02
   5  9 11  1.83350E-03  2.81450E+02
   5  9 12  1.46601E-02  2.95660E+02
   5  9 13  1.27214E-02  3.77810E+02
   5  9 14  1.98911E-02  3.80180E+02
   5  9 17  5.47285E-03  4.32450E+02
   5  9 18  1.65729E-04  4.45150E+02
   5  9 19  1.35220E-03  4.46990E+02
   5  9 24  1.73134E-04  4.59730E+02
   5 10 10  8.01413E-03  7.32680E+02
   5 10 11  1.30144E-02  7.82570E+02
   5 10 12  2.39294E-02  7.96780E+02
   5 10 13  2.39905E-02  8.78930E+02
   5 10 14  3.49588E-02  8.81300E+02
   5 10 17  2.06840E-03  9.33570E+02
   5 10 18  1.55650E-03  9.46270E+02
   5 10 19  2.77072E-03  9.48110E+02
   5 10 24  6.73729E-05  9.60850E+02
   5 11 11  7.00744E-04  8.32460E+02
   5 11 12  1.71700E-03  8.46670E+02
   5 11 13  1.02749E-03  9.28820E+02
   5 11 14  3.95692E-04  9.31190E+02
   5 11 17  1.30028E-03  9.83460E+02
   5 11 18  1.37899E-04  9.96160E+02
   5 11 19  1.58881E-04  9.98000E+02
   5 11 24  4.12204E-05  1.01074E+03
   5 12 12  2.21331E-03  8.60880E+02
   5 12 13  1.00674E-03  9.43030E+02
   5 12 14  2.77531E-03  9.45400E+02
   5 12 17  2.30242E-03  9.97670E+02
   5 12 18  1.66715E-04  1.01037E+03
   5 12 19  4.34018E-04  1.01221E+03
   5 12 24  7.25781E-05  1.02495E+03
   5 13 13  2.99605E-04  1.02518E+03
   5 13 14  1.11764E-03  1.02755E+03
   5 13 17  2.38396E-03  1.07982E+03
   5 13 18  9.35767E-05  1.09252E+03
   5 13 19  9.58449E-05  1.09436E+03
   5 13 24  7.47101E-05  1.10710E+03
   5 14 14  7.19807E-04  1.02992E+03
   5 14 17  3.45630E-03  1.08219E+03
   5 14 18  3.45630E-05  1.09489E+03
   5 14 19  2.67477E-04  1.09673E+03
   5 14 24  1.08945E-04  1.10947E+03
   5 17 17  8.64993E-05  1.13446E+03
   5 17 18  1.11062E-04  1.14716E+03
   5 17 19  1.97563E-04  1.14900E+03
   5 17 24  5.33956E-06  1.16174E+03
   5 18 18  2.59813E-06  1.15986E+03
   5 18 19  6.06225E-06  1.16170E+03
   5 18 24  2.02066E-06  1.17444E+03
   5 19 19  1.06753E-05  1.16354E+03
   5 19 24  4.41736E-06  1.17628E+03
   6  8  0  4.33604E-04  3.11800E+02
   6 10  0  3.12234E-04  8.27640E+02
   6 13  0  1.24439E-03  9.73890E+02
   6 17  0  4.94729E-05  1.02853E+03
   6  7 18  8.17555E-03  5.05500E+01
   6  7 19  9.76549E-03  5.23900E+01
   6  7 24  2.76087E-04  6.51300E+01
   6  8 10  1.29771E-01  7.99400E+01
   6  8 11  1.32517E-01  1.29830E+02
   6  8 12  1.93126E-01  1.44040E+02
   6  8 13  5.58814E-02  2.26190E+02
   6  8 14  6.07310E-02  2.28560E+02
   6  8 17  2.04267E-02  2.80830E+02
   6  8 18  1.39158E-02  2.93530E+02
   6  8 19  2.14496E-02  2.95370E+02
   6  8 24  6.64005E-04  3.08110E+02
   6  9 10  2.22992E-02  9.46600E+01
   6  9 11  1.59686E-01  1.44550E+02
   6  9 12  1.66119E-02  1.58760E+02
   6  9 13  3.32833E-03  2.40910E+02
   6  9 14  7.37297E-03  2.43280E+02
   6  9 17  2.34182E-03  2.95550E+02
   6  9 18  1.39188E-02  3.08250E+02
   6  9 19  1.68487E-03  3.10090E+02
   6  9 24  7.42054E-05  3.22830E+02
   6 10 10  6.99283E-04  5.95780E+02
   6 10 11  9.90058E-03  6.45670E+02
   6 10 12  1.61691E-03  6.59880E+02
   6 10 13  3.52853E-04  7.42030E+02
   6 10 14  1.05972E-03  7.44400E+02
   6 10 17  1.71772E-04  7.96670E+02
   6 10 18  8.22730E-04  8.09370E+02
   6 10 19  1.68852E-04  8.11210E+02
   6 10 24  5.24033E-06  8.23950E+02
   6 11 11  7.18883E-03  6.95560E+02
   6 11 12  2.24110E-02  7.09770E+02
   6 11 13  1.95821E-02  7.91920E+02
   6 11 14  3.25733E-02  7.94290E+02
   6 11 17  1.55124E-03  8.46560E+02
   6 11 18  1.47642E-03  8.59260E+02
   6 11 19  2.58196E-03  8.61100E+02
   6 11 24  5.11155E-05  8.73840E+02
   6 12 12  6.45715E-04  7.23980E+02
   6 12 13  2.01902E-03  8.06130E+02
   6 12 14  1.48367E-03  8.08500E+02
   6 12 17  1.85851E-04  8.60770E+02
   6 12 18  2.03424E-03  8.73470E+02
   6 12 19  1.25600E-04  8.75310E+02
   6 12 24  5.70887E-06  8.88050E+02
   6 13 13  6.44417E-04  8.88280E+02
   6 13 14  1.65737E-03  8.90650E+02
   6 13 17  4.69180E-05  9.42920E+02
   6 13 18  1.55232E-03  9.55620E+02
   6 13 19  1.74106E-04  9.57460E+02
   6 13 24  1.69578E-06  9.70200E+02
   6 14 14  2.26787E-04  8.93020E+02
   6 14 17  6.80031E-05  9.45290E+02
   6 14 18  1.48581E-03  9.57990E+02
   6 14 19  6.80031E-05  9.59830E+02
   6 14 24  2.24538E-06  9.72570E+02
   6 17 17  7.87279E-06  9.97560E+02
   6 17 18  9.49150E-05  1.01026E+03
   6 17 19  1.35587E-05  1.01210E+03
   6 17 24  4.37383E-07  1.02484E+03
   6 18 18  4.48573E-05  1.02296E+03
   6 18 19  1.36044E-04  1.02480E+03
   6 18 24  2.57372E-06  1.03754E+03
   6 19 19  3.45243E-06  1.02664E+03
   6 19 24  3.45243E-07  1.03938E+03
   7  8  0  2.12415E-05  2.42980E+02
   7  9  0  2.33778E-04  2.57700E+02
   7 10  0  3.82106E-04  7.58820E+02
   7 13  0  1.49791E-04  9.05070E+02
   7 14  0  1.23501E-03  9.07440E+02
   7 17  0  6.00413E-05  9.59710E+02
   7  8 11  1.75519E-02  6.10100E+01
   7  8 12  1.01384E-01  7.52200E+01
   7  8 13  1.29933E-02  1.57370E+02
   7  8 14  9.67777E-03  1.59740E+02
   7  8 17  3.05018E-03  2.12010E+02
   7  8 18  1.95474E-03  2.24710E+02
   7  8 19  9.19137E-03  2.26550E+02
   7  8 24  9.92321E-05  2.39290E+02
   7  9 11  1.18087E-01  7.57300E+01
   7  9 12  2.27079E-01  8.99400E+01
   7  9 13  5.20128E-02  1.72090E+02
   7  9 14  8.55188E-02  1.74460E+02
   7  9 17  1.75292E-02  2.26730E+02
   7  9 18  1.33016E-02  2.39430E+02
   7  9 19  2.32581E-02  2.41270E+02
   7  9 24  5.75998E-04  2.54010E+02
   7 10 10  7.88312E-04  5.26960E+02
   7 10 11  1.15253E-03  5.76850E+02
   7 10 12  1.67099E-02  5.91060E+02
   7 10 13  9.86243E-04  6.73210E+02
   7 10 14  1.07508E-03  6.75580E+02
   7 10 17  1.93561E-04  7.27850E+02
   7 10 18  1.16134E-04  7.40550E+02
   7 10 19  1.37159E-03  7.42390E+02
   7 10 24  6.15847E-06  7.55130E+02
   7 11 11  1.88033E-04  6.26740E+02
   7 11 12  1.92762E-02  6.40950E+02
   7 11 13  5.27385E-04  7.23100E+02
   7 11 14  3.11689E-03  7.25470E+02
   7 11 17  1.28935E-04  7.77740E+02
   7 11 18  3.58150E-05  7.90440E+02
   7 11 19  1.59650E-03  7.92280E+02
   7 11 24  4.47680E-06  8.05020E+02
   7 12 12  2.50532E-02  6.55160E+02
   7 12 13  3.19814E-02  7.37310E+02
   7 12 14  4.34977E-02  7.39680E+02
   7 12 17  2.27848E-03  7.91950E+02
   7 12 18  2.02397E-03  8.04650E+02
   7 12 19  4.95806E-03  8.06490E+02
   7 12 24  7.47328E-05  8.19230E+02
   7 13 13  1.80346E-04  8.19460E+02
   7 13 14  2.22502E-03  8.21830E+02
   7 13 17  6.93618E-05  8.74100E+02
   7 13 18  2.83473E-05  8.86800E+02
   7 13 19  2.00071E-03  8.88640E+02
   7 13 24  2.41254E-06  9.01380E+02
   7 14 14  1.06367E-03  8.24200E+02
   7 14 17  6.52493E-05  8.76470E+02
   7 14 18  1.40804E-04  8.89170E+02
   7 14 19  2.19742E-03  8.91010E+02
   7 14 24  1.96237E-06  9.03750E+02
   7 17 17  7.40594E-06  9.28740E+02
   7 17 18  7.93489E-06  9.41440E+02
   7 17 19  1.24314E-04  9.43280E+02
   7 17 24  5.29005E-07  9.56020E+02
   7 18 18  1.11957E-06  9.54140E+02
   7 18 19  1.18117E-04  9.55980E+02
   7 19 19  1.71229E-04  9.57820E+02
   7 19 24  4.58137E-06  9.70560E+02
   8 11  0  2.07960E-03  5.65730E+02
   8 12  0  3.25161E-04  5.79940E+02
   8 18  0  2.61900E-04  7.29430E+02
