 PENELOPE (v. 2012)  Material data file ...............
 Material: Eagle XG                                                      
 Mass density = 2.38000000E+00 g/cm**3
 Number of elements in the molecule = 14
   atomic number = 14,  atoms/molecule = 3.30940563E-01
   atomic number = 13,  atoms/molecule = 1.02960033E-01
   atomic number =  5,  atoms/molecule = 9.31551209E-02
   atomic number = 20,  atoms/molecule = 2.98277816E-02
   atomic number = 12,  atoms/molecule = 9.80575643E-03
   atomic number = 38,  atoms/molecule = 2.45147509E-03
   atomic number = 50,  atoms/molecule = 3.11228333E-04
   atomic number = 56,  atoms/molecule = 2.45226179E-04
   atomic number = 26,  atoms/molecule = 1.96037032E-04
   atomic number = 51,  atoms/molecule = 9.80283310E-05
   atomic number = 33,  atoms/molecule = 9.79664134E-05
   atomic number = 40,  atoms/molecule = 7.36982195E-05
   atomic number = 22,  atoms/molecule = 9.79036898E-05
   atomic number =  8,  atoms/molecule = 1.00000000E+00
 Mean excitation energy = 1.24154391E+02 eV
 Number of oscillators = 97 (E/P inelastic model)
   1  1.33698018E+00  0.00000000E+00  9.25609997E+00   0  30
   2  6.86345942E+00  1.83378152E+01  4.03170992E+01   0  30
   3  6.71058829E-02  4.53601231E+01  1.03090502E+02   0  30
   4  1.96115129E-02  5.40000000E+01  1.22841943E+02  12   3
   5  3.92230257E-02  5.40000000E+01  1.22845353E+02  12   4
   6  1.47396439E-04  5.60000000E+01  1.27388133E+02  40  10
   7  7.84148127E-04  5.90000000E+01  1.34212596E+02  26   7
   8  3.92074063E-04  6.10000000E+01  1.38762107E+02  26   6
   9  1.95807380E-04  6.40000000E+01  1.45586438E+02  22   5
  10  2.05920067E-01  7.70000000E+01  1.75183759E+02  13   3
  11  4.11840133E-01  7.70000000E+01  1.75208865E+02  13   4
  12  1.47135708E-03  9.20000000E+01  2.09280614E+02  56  14
  13  1.96115129E-02  9.20000000E+01  2.09282465E+02  12   2
  14  1.24491333E-03  9.30000000E+01  2.11555377E+02  50  12
  15  9.80904718E-04  9.40000000E+01  2.13830137E+02  56  13
  16  3.92074063E-04  9.80000000E+01  2.22929227E+02  26   5
  17  6.22456666E-04  1.02000000E+02  2.32028397E+02  50  11
  18  3.92113324E-04  1.04000000E+02  2.36577951E+02  51  12
  19  6.61881126E-01  1.04000000E+02  2.36637669E+02  14   3
  20  1.32376225E+00  1.04000000E+02  2.36697407E+02  14   4
  21  1.96056662E-04  1.14000000E+02  2.59325808E+02  51  11
  22  2.05920067E-01  1.21000000E+02  2.75265285E+02  13   2
  23  1.47088506E-02  1.37000000E+02  3.11646916E+02  38   9
  24  9.80590038E-03  1.39000000E+02  3.16196146E+02  38   8
  25  6.22456666E-04  1.41000000E+02  3.20745100E+02  50  10
  26  3.91865654E-04  1.45000000E+02  3.29844234E+02  33   7
  27  1.95932827E-04  1.51000000E+02  3.43492947E+02  33   6
  28  6.61881126E-01  1.54000000E+02  3.50357653E+02  14   2
  29  1.96056662E-04  1.57000000E+02  3.57141673E+02  51  10
  30  9.80904718E-04  1.81000000E+02  4.11736615E+02  56  12
  31  4.42189317E-04  1.85000000E+02  4.20835737E+02  40   9
  32  2.94792878E-04  1.87000000E+02  4.25385305E+02  40   8
  33  1.86310242E-01  1.92000000E+02  4.36768340E+02   5  30
  34  4.90452359E-04  1.93000000E+02  4.39034040E+02  56  11
  35  1.95932827E-04  2.08000000E+02  4.73155840E+02  33   5
  36  4.90452359E-04  2.54000000E+02  5.77796081E+02  56  10
  37  9.80590038E-03  2.73000000E+02  6.21017365E+02  38   7
  38  4.90295019E-03  2.83000000E+02  6.43765067E+02  38   6
  39  2.94792878E-04  3.35000000E+02  7.62053871E+02  40   7
  40  1.47396439E-04  3.48000000E+02  7.91626106E+02  40   6
  41  1.19311126E-01  3.49000000E+02  7.93904099E+02  20   4
  42  5.96555631E-02  3.53000000E+02  8.03001627E+02  20   3
  43  4.90295019E-03  3.61000000E+02  8.21198469E+02  38   5
  44  1.47396439E-04  4.34000000E+02  9.87257843E+02  40   5
  45  5.96555631E-02  4.41000000E+02  1.00318262E+03  20   2
  46  3.91614759E-04  4.59000000E+02  1.04412754E+03  22   4
  47  1.95807380E-04  4.65000000E+02  1.05777626E+03  22   3
  48  1.86737000E-03  4.89000000E+02  1.11237120E+03  50   9
  49  1.24491333E-03  4.97000000E+02  1.13056948E+03  50   8
  50  5.88169986E-04  5.33000000E+02  1.21246183E+03  51   9
  51  2.00000000E+00  5.38000000E+02  1.22387066E+03   8   1
  52  3.92113324E-04  5.42000000E+02  1.23293491E+03  51   8
  53  1.95807380E-04  5.67000000E+02  1.28980460E+03  22   2
  54  7.84148127E-04  7.13000000E+02  1.62192360E+03  26   4
  55  1.24491333E-03  7.19000000E+02  1.63557234E+03  50   7
  56  3.92074063E-04  7.26000000E+02  1.65149584E+03  26   3
  57  6.22456666E-04  7.61000000E+02  1.73111341E+03  50   6
  58  3.92113324E-04  7.71000000E+02  1.75386128E+03  51   7
  59  1.47135708E-03  7.82000000E+02  1.77888396E+03  56   9
  60  9.80904718E-04  7.97000000E+02  1.81300577E+03  56   8
  61  1.96056662E-04  8.17000000E+02  1.85850151E+03  51   6
  62  3.92074063E-04  8.51000000E+02  1.93584429E+03  26   2
  63  6.22456666E-04  8.88000000E+02  2.02001144E+03  50   5
  64  1.96056662E-04  9.49000000E+02  2.15877348E+03  51   5
  65  9.80904718E-04  1.06300000E+03  2.41809928E+03  56   7
  66  4.90452359E-04  1.13800000E+03  2.58870835E+03  56   6
  67  4.90452359E-04  1.29300000E+03  2.94130043E+03  56   5
  68  1.96115129E-02  1.30800000E+03  2.97542239E+03  12   1
  69  3.91865654E-04  1.32700000E+03  3.01864321E+03  33   4
  70  1.95932827E-04  1.36200000E+03  3.09826078E+03  33   3
  71  1.95932827E-04  1.53100000E+03  3.48269989E+03  33   2
  72  2.05920067E-01  1.56400000E+03  3.55776912E+03  13   1
  73  6.61881126E-01  1.84400000E+03  4.19471179E+03  14   1
  74  9.80590038E-03  1.94300000E+03  4.41991245E+03  38   4
  75  4.90295019E-03  2.01000000E+03  4.57232320E+03  38   3
  76  4.90295019E-03  2.21900000E+03  5.04775381E+03  38   2
  77  2.94792878E-04  2.22700000E+03  5.06595209E+03  40   4
  78  1.47396439E-04  2.31100000E+03  5.25703426E+03  40   3
  79  1.47396439E-04  2.53600000E+03  5.76886148E+03  40   2
  80  1.24491333E-03  3.93300000E+03  8.94673982E+03  50   4
  81  5.96555631E-02  4.04100000E+03  9.19241703E+03  20   1
  82  3.92113324E-04  4.13700000E+03  9.41079650E+03  51   4
  83  6.22456666E-04  4.16000000E+03  9.46311662E+03  50   3
  84  1.96056662E-04  4.38500000E+03  9.97494384E+03  51   3
  85  6.22456666E-04  4.46900000E+03  1.01660260E+04  50   2
  86  1.96056662E-04  4.70300000E+03  1.06983263E+04  51   2
  87  1.95807380E-04  4.97000000E+03  1.13056946E+04  22   1
  88  9.80904718E-04  5.24900000E+03  1.19403604E+04  56   4
  89  4.90452359E-04  5.62600000E+03  1.27979553E+04  56   3
  90  4.90452359E-04  5.99100000E+03  1.36282528E+04  56   2
  91  3.92074063E-04  7.11700000E+03  1.61896637E+04  26   1
  92  1.95932827E-04  1.18710000E+04  2.70040042E+04  33   1
  93  4.90295019E-03  1.61080000E+04  3.66422794E+04  38   1
  94  1.47396439E-04  1.80020000E+04  4.09507272E+04  40   1
  95  6.22456666E-04  2.92040000E+04  6.64328985E+04  50   1
  96  1.96056662E-04  3.04960000E+04  6.93719241E+04  51   1
  97  4.90452359E-04  3.74420000E+04  8.51725991E+04  56   1
 Number of shells = 97 (Compton IA model)
   1  1.33698018E+00  0.00000000E+00  1.43640960E+00   0  30
   2  6.86345942E+00  1.83378152E+01  4.82014402E-01   0  30
   3  6.71058829E-02  4.53601231E+01  4.98593683E-01   0  30
   4  3.92230257E-02  5.40000000E+01  1.91891000E-01  12   4
   5  1.96115129E-02  5.40000000E+01  1.91325000E-01  12   3
   6  1.47396439E-04  5.60000000E+01  5.01102000E-01  40  10
   7  7.84148127E-04  5.90000000E+01  2.22909000E-01  26   7
   8  3.92074063E-04  6.10000000E+01  2.20645000E-01  26   6
   9  1.95807380E-04  6.40000000E+01  4.38139000E-01  22   5
  10  4.11840133E-01  7.70000000E+01  1.67604000E-01  13   4
  11  2.05920067E-01  7.70000000E+01  1.67061000E-01  13   3
  12  1.47135708E-03  9.20000000E+01  1.38808000E-01  56  14
  13  1.96115129E-02  9.20000000E+01  3.41174000E-01  12   2
  14  1.24491333E-03  9.30000000E+01  2.16021000E-01  50  12
  15  9.80904718E-04  9.40000000E+01  1.37126000E-01  56  13
  16  3.92074063E-04  9.80000000E+01  3.51458000E-01  26   5
  17  6.22456666E-04  1.02000000E+02  2.09348000E-01  50  11
  18  3.92113324E-04  1.04000000E+02  2.06601000E-01  51  12
  19  1.32376225E+00  1.04000000E+02  1.49030000E-01  14   4
  20  6.61881126E-01  1.04000000E+02  1.48493000E-01  14   3
  21  1.96056662E-04  1.14000000E+02  2.00126000E-01  51  11
  22  2.05920067E-01  1.21000000E+02  3.03886000E-01  13   2
  23  1.47088506E-02  1.37000000E+02  9.07187000E-02  38   9
  24  9.80590038E-03  1.39000000E+02  9.01051000E-02  38   8
  25  6.22456666E-04  1.41000000E+02  3.22001000E-01  50  10
  26  3.91865654E-04  1.45000000E+02  1.57976000E-01  33   7
  27  1.95932827E-04  1.51000000E+02  1.55513000E-01  33   6
  28  6.61881126E-01  1.54000000E+02  2.74105000E-01  14   2
  29  1.96056662E-04  1.57000000E+02  3.08629000E-01  51  10
  30  9.80904718E-04  1.81000000E+02  1.69190000E-01  56  12
  31  4.42189317E-04  1.85000000E+02  8.22604000E-02  40   9
  32  2.94792878E-04  1.87000000E+02  8.16747000E-02  40   8
  33  1.86310242E-01  1.92000000E+02  1.85913000E-01   5  30
  34  4.90452359E-04  1.93000000E+02  1.63411000E-01  56  11
  35  1.95932827E-04  2.08000000E+02  2.54342000E-01  33   5
  36  4.90452359E-04  2.54000000E+02  2.54611000E-01  56  10
  37  9.80590038E-03  2.73000000E+02  1.25508000E-01  38   7
  38  4.90295019E-03  2.83000000E+02  1.23161000E-01  38   6
  39  2.94792878E-04  3.35000000E+02  1.15881000E-01  40   7
  40  1.47396439E-04  3.48000000E+02  1.13549000E-01  40   6
  41  1.19311126E-01  3.49000000E+02  9.01604000E-02  20   4
  42  5.96555631E-02  3.53000000E+02  8.95584000E-02  20   3
  43  4.90295019E-03  3.61000000E+02  2.04400000E-01  38   5
  44  1.47396439E-04  4.34000000E+02  1.89089000E-01  40   5
  45  5.96555631E-02  4.41000000E+02  1.72935000E-01  20   2
  46  3.91614759E-04  4.59000000E+02  7.97622000E-02  22   4
  47  1.95807380E-04  4.65000000E+02  7.91236000E-02  22   3
  48  1.86737000E-03  4.89000000E+02  5.68648000E-02  50   9
  49  1.24491333E-03  4.97000000E+02  5.62946000E-02  50   8
  50  5.88169986E-04  5.33000000E+02  5.51935000E-02  51   9
  51  2.00000000E+00  5.38000000E+02  1.13183000E-01   8   1
  52  3.92113324E-04  5.42000000E+02  5.46208000E-02  51   8
  53  1.95807380E-04  5.67000000E+02  1.53807000E-01  22   2
  54  7.84148127E-04  7.13000000E+02  6.49062000E-02  26   4
  55  1.24491333E-03  7.19000000E+02  8.38634000E-02  50   7
  56  3.92074063E-04  7.26000000E+02  6.41844000E-02  26   3
  57  6.22456666E-04  7.61000000E+02  8.14036000E-02  50   6
  58  3.92113324E-04  7.71000000E+02  8.15894000E-02  51   7
  59  1.47135708E-03  7.82000000E+02  4.81299000E-02  56   9
  60  9.80904718E-04  7.97000000E+02  4.75400000E-02  56   8
  61  1.96056662E-04  8.17000000E+02  7.91095000E-02  51   6
  62  3.92074063E-04  8.51000000E+02  1.25935000E-01  26   2
  63  6.22456666E-04  8.88000000E+02  1.36927000E-01  50   5
  64  1.96056662E-04  9.49000000E+02  1.33156000E-01  51   5
  65  9.80904718E-04  1.06300000E+03  7.17763000E-02  56   7
  66  4.90452359E-04  1.13800000E+03  6.91882000E-02  56   6
  67  4.90452359E-04  1.29300000E+03  1.16783000E-01  56   5
  68  1.96115129E-02  1.30800000E+03  7.42688000E-02  12   1
  69  3.91865654E-04  1.32700000E+03  4.89862000E-02  33   4
  70  1.95932827E-04  1.36200000E+03  4.81059000E-02  33   3
  71  1.95932827E-04  1.53100000E+03  9.53490000E-02  33   2
  72  2.05920067E-01  1.56400000E+03  6.83322000E-02  13   1
  73  6.61881126E-01  1.84400000E+03  6.32596000E-02  14   1
  74  9.80590038E-03  1.94300000E+03  4.16189000E-02  38   4
  75  4.90295019E-03  2.01000000E+03  4.06256000E-02  38   3
  76  4.90295019E-03  2.21900000E+03  8.09140000E-02  38   2
  77  2.94792878E-04  2.22700000E+03  3.92411000E-02  40   4
  78  1.47396439E-04  2.31100000E+03  3.82024000E-02  40   3
  79  1.47396439E-04  2.53600000E+03  7.62109000E-02  40   2
  80  1.24491333E-03  3.93300000E+03  3.04471000E-02  50   4
  81  5.96555631E-02  4.04100000E+03  4.36230000E-02  20   1
  82  3.92113324E-04  4.13700000E+03  2.97729000E-02  51   4
  83  6.22456666E-04  4.16000000E+03  2.91768000E-02  50   3
  84  1.96056662E-04  4.38500000E+03  2.84789000E-02  51   3
  85  6.22456666E-04  4.46900000E+03  5.86085000E-02  50   2
  86  1.96056662E-04  4.70300000E+03  5.72432000E-02  51   2
  87  1.95807380E-04  4.97000000E+03  3.94800000E-02  22   1
  88  9.80904718E-04  5.24900000E+03  2.67887000E-02  56   4
  89  4.90452359E-04  5.62600000E+03  2.53745000E-02  56   3
  90  4.90452359E-04  5.99100000E+03  5.11661000E-02  56   2
  91  3.92074063E-04  7.11700000E+03  3.31215000E-02  26   1
  92  1.95932827E-04  1.18710000E+04  2.57189000E-02  33   1
  93  4.90295019E-03  1.61080000E+04  2.20975000E-02  38   1
  94  1.47396439E-04  1.80020000E+04  2.08989000E-02  40   1
  95  6.22456666E-04  2.92040000E+04  1.63105000E-02  50   1
  96  1.96056662E-04  3.04960000E+04  1.59473000E-02  51   1
  97  4.90452359E-04  3.74420000E+04  1.43158000E-02  56   1
 *** RELAX:  Z = 14,  no. of shells =  6,  no. of transitions =  51
   1 1s1/2 2  1.84400E+03  6.32596E-02
   2 2s1/2 2  1.54000E+02  2.74105E-01
   3 2p1/2 2  1.04000E+02  1.48493E-01
   4 2p3/2 4  1.04000E+02  1.49030E-01
   5 3s1/2 2  1.34600E+01  1.03443E+00
   6 3p1/2 2  8.15100E+00  7.43235E-01
   1  3  0  1.59791E-02  1.73939E+03
   1  4  0  3.17052E-02  1.73998E+03
   1  6  0  2.72402E-04  1.83596E+03
   1  7  0  5.40444E-04  1.83596E+03
   1  2  2  7.47954E-02  1.52540E+03
   1  2  3  8.01214E-02  1.56828E+03
   1  2  4  1.56131E-01  1.56897E+03
   1  2  5  1.41124E-02  1.66332E+03
   1  2  6  1.95584E-03  1.67040E+03
   1  2  7  3.81585E-03  1.67043E+03
   1  3  3  1.39905E-02  1.61116E+03
   1  3  4  3.56408E-01  1.61185E+03
   1  3  5  6.76231E-03  1.70620E+03
   1  3  6  6.64732E-04  1.71328E+03
   1  3  7  7.97675E-03  1.71331E+03
   1  4  4  2.03104E-01  1.61254E+03
   1  4  5  1.31982E-02  1.70689E+03
   1  4  6  7.96407E-03  1.71397E+03
   1  4  7  9.16547E-03  1.71400E+03
   1  5  5  6.64748E-04  1.80124E+03
   1  5  6  1.66185E-04  1.80832E+03
   1  5  7  3.25975E-04  1.80835E+03
   1  6  6  6.39199E-06  1.81540E+03
   1  6  7  1.08669E-04  1.81543E+03
   1  7  7  6.39185E-05  1.81546E+03
   2  6  0  5.83271E-06  1.55240E+02
   2  7  0  1.07340E-05  1.45030E+02
   2  5  5  1.03158E-02  1.24290E+02
   2  5  6  5.00684E-03  1.31370E+02
   2  5  7  9.95440E-03  1.31400E+02
   2  6  6  3.23120E-05  1.38450E+02
   2  7  7  6.62381E-05  1.38510E+02
   3  5  0  4.72000E-05  9.50400E+01
   3  7  0  1.82830E-09  1.02150E+02
   3  5  5  6.76285E-02  8.14100E+01
   3  5  6  5.54847E-01  8.84900E+01
   3  5  7  3.51351E-02  8.85200E+01
   3  6  6  7.24466E-02  9.55700E+01
   3  6  7  2.62434E-01  9.56000E+01
   3  7  7  7.46220E-03  9.56300E+01
   4  5  0  4.42068E-05  9.43500E+01
   4  6  0  8.54246E-10  1.00630E+02
   4  7  0  8.43116E-10  1.01460E+02
   4  5  5  6.56816E-02  8.07200E+01
   4  5  6  1.73500E-02  8.78000E+01
   4  5  7  5.73636E-01  8.78300E+01
   4  6  6  1.08438E-03  9.48800E+01
   4  6  7  1.37565E-01  9.49100E+01
   4  7  7  2.04639E-01  9.49400E+01
   2 30  0  3.26940E-04  4.33570E+01
   2 30 30  9.74281E-01  3.11037E+01
 *** RELAX:  Z = 13,  no. of shells =  6,  no. of transitions =  40
   1 1s1/2 2  1.56400E+03  6.83322E-02
   2 2s1/2 2  1.21000E+02  3.03886E-01
   3 2p1/2 2  7.70000E+01  1.67061E-01
   4 2p3/2 4  7.70000E+01  1.67604E-01
   5 3s1/2 2  9.07500E+00  1.23808E+00
   6 3p1/2 1  9.07500E+00  9.18119E-01
   1  3  0  1.23699E-02  1.48630E+03
   1  4  0  2.45528E-02  1.48671E+03
   1  6  0  7.55854E-05  1.55757E+03
   1  7  0  1.50039E-04  1.55757E+03
   1  2  2  7.83944E-02  1.31180E+03
   1  2  3  8.32180E-02  1.34965E+03
   1  2  4  1.62725E-01  1.35012E+03
   1  2  5  1.35884E-02  1.42069E+03
   1  2  6  8.96794E-04  1.42597E+03
   1  2  7  1.76485E-03  1.42598E+03
   1  3  3  1.42920E-02  1.38750E+03
   1  3  4  3.66942E-01  1.38797E+03
   1  3  5  6.49294E-03  1.45854E+03
   1  3  6  3.01318E-04  1.46382E+03
   1  3  7  3.65883E-03  1.46383E+03
   1  4  4  2.09226E-01  1.38844E+03
   1  4  5  1.27063E-02  1.45901E+03
   1  4  6  3.65189E-03  1.46429E+03
   1  4  7  4.20421E-03  1.46430E+03
   1  5  5  5.81139E-04  1.52958E+03
   1  5  6  7.17440E-05  1.53486E+03
   1  5  7  1.36311E-04  1.53487E+03
   2  6  0  2.07691E-06  1.22300E+02
   2  7  0  4.02982E-06  1.14180E+02
   2  5  5  1.12532E-02  9.87300E+01
   2  5  6  2.61944E-03  1.04010E+02
   2  5  7  5.21749E-03  1.04020E+02
   3  5  0  1.60531E-05  7.10400E+01
   3  7  0  1.75611E-10  7.63300E+01
   3  5  5  1.50408E-01  6.08800E+01
   3  5  6  8.00076E-01  6.61600E+01
   3  5  7  4.94996E-02  6.61700E+01
   4  5  0  1.49999E-05  7.05700E+01
   4  6  0  8.20316E-11  7.58500E+01
   4  7  0  8.10126E-11  7.58600E+01
   4  5  5  1.44757E-01  6.04100E+01
   4  5  6  2.47625E-02  6.56900E+01
   4  5  7  8.30465E-01  6.57000E+01
   2 30  0  2.49536E-04  3.81712E+01
   2 30 30  9.80654E-01  2.85014E+01
 *** RELAX:  Z =  5,  no. of shells =  3,  no. of transitions =   0
   1 1s1/2 2  1.92000E+02  1.85913E-01
   2 2s1/2 2  1.13860E+01  1.00114E+00
   3 2p1/2 1  1.13860E+01  6.14623E-01
 *** RELAX:  Z = 20,  no. of shells =  8,  no. of transitions =  72
   1 1s1/2 2  4.04100E+03  4.36230E-02
   2 2s1/2 2  4.41000E+02  1.72935E-01
   3 2p1/2 2  3.53000E+02  8.95584E-02
   4 2p3/2 4  3.49000E+02  9.01604E-02
   5 3s1/2 2  4.60000E+01  5.06050E-01
   6 3p1/2 2  2.80000E+01  3.28910E-01
   7 3p3/2 4  2.80000E+01  3.30822E-01
  10 4s1/2 2  6.11300E+00  1.93895E+00
   1  3  0  4.87196E-02  3.68813E+03
   1  4  0  9.61323E-02  3.69172E+03
   1  6  0  5.17776E-03  4.01276E+03
   1  7  0  1.02489E-02  4.01276E+03
   1  2  2  5.63485E-02  3.14678E+03
   1  2  3  6.20531E-02  3.22185E+03
   1  2  4  1.17762E-01  3.22569E+03
   1  2  5  1.42824E-02  3.52773E+03
   1  2  6  7.23290E-03  3.54688E+03
   1  2  7  1.37034E-02  3.54729E+03
   1  2 10  1.62556E-03  3.57544E+03
   1  3  3  1.12223E-02  3.29692E+03
   1  3  4  2.76841E-01  3.30076E+03
   1  3  5  6.82757E-03  3.60280E+03
   1  3  6  2.49498E-03  3.62195E+03
   1  3  7  2.84282E-02  3.62236E+03
   1  3 10  7.63476E-04  3.65051E+03
   1  4  4  1.56416E-01  3.30460E+03
   1  4  5  1.29934E-02  3.60664E+03
   1  4  6  2.83839E-02  3.62579E+03
   1  4  7  3.25412E-02  3.62620E+03
   1  4 10  1.45385E-03  3.65435E+03
   1  5  5  8.72175E-04  3.90868E+03
   1  5  6  7.79616E-04  3.92783E+03
   1  5  7  1.47733E-03  3.92824E+03
   1  5 10  1.99359E-04  3.95639E+03
   1  6  6  1.35157E-04  3.94698E+03
   1  6  7  2.93344E-03  3.94739E+03
   1  6 10  8.76773E-05  3.97554E+03
   1  7  7  1.69495E-03  3.94780E+03
   1  7 10  1.68035E-04  3.97595E+03
   2  3  0  9.42443E-05  7.50700E+01
   2  4  0  2.78501E-04  7.89100E+01
   2  6  0  2.04061E-04  4.15430E+02
   2  7  0  3.06021E-04  4.15800E+02
   2  3 10  1.42567E-02  6.96200E+01
   2  4 10  2.73691E-02  7.34600E+01
   2  5  5  1.31208E-02  3.27790E+02
   2  5  6  2.28754E-02  3.46940E+02
   2  5  7  4.52192E-02  3.47350E+02
   2  5 10  2.68682E-03  3.75500E+02
   2  6  6  5.21721E-04  3.66090E+02
   2  6  7  2.67985E-04  3.66500E+02
   2  6 10  2.04550E-03  3.94650E+02
   2  7  7  1.23299E-03  3.66910E+02
   2  7 10  4.04393E-03  3.95060E+02
   3  5  0  1.19571E-03  3.06430E+02
   3  7  0  8.74676E-07  3.27120E+02
   3 10  0  2.53632E-05  3.53590E+02
   3  5  5  1.08556E-02  2.52720E+02
   3  5  6  1.98917E-01  2.71870E+02
   3  5  7  1.45844E-02  2.72280E+02
   3  5 10  2.13424E-03  3.00430E+02
   3  6  6  1.61409E-01  2.91020E+02
   3  6  7  5.70643E-01  2.91430E+02
   3  6 10  2.29240E-02  3.19580E+02
   3  7  7  1.58751E-02  2.91840E+02
   3  7 10  1.43604E-03  3.19990E+02
   4  5  0  1.13130E-03  3.02690E+02
   4  6  0  4.05972E-07  3.23340E+02
   4  7  0  3.98812E-07  3.23710E+02
   4 10  0  2.39671E-05  3.49750E+02
   4  5  5  1.06175E-02  2.48880E+02
   4  5  6  6.94101E-03  2.68030E+02
   4  5  7  2.03179E-01  2.68440E+02
   4  5 10  2.10301E-03  2.96590E+02
   4  6  6  2.69658E-03  2.87180E+02
   4  6  7  2.95034E-01  2.87590E+02
   4  6 10  6.70949E-04  3.15740E+02
   4  7  7  4.53602E-01  2.88000E+02
   4  7 10  2.39998E-02  3.16150E+02
   2 30 30  8.65477E-01  3.53086E+01
 *** RELAX:  Z = 12,  no. of shells =  5,  no. of transitions =  19
   1 1s1/2 2  1.30800E+03  7.42688E-02
   2 2s1/2 2  9.20000E+01  3.41174E-01
   3 2p1/2 2  5.40000E+01  1.91325E-01
   4 2p3/2 4  5.40000E+01  1.91891E-01
   5 3s1/2 2  7.64600E+00  1.58368E+00
   1  3  0  9.27327E-03  1.25344E+03
   1  4  0  1.84189E-02  1.25369E+03
   1  2  2  8.23145E-02  1.11558E+03
   1  2  3  8.60821E-02  1.14849E+03
   1  2  4  1.68838E-01  1.14880E+03
   1  2  5  1.26143E-02  1.19815E+03
   1  3  3  1.44975E-02  1.18140E+03
   1  3  4  3.75508E-01  1.18171E+03
   1  3  5  5.99323E-03  1.23106E+03
   1  4  4  2.14213E-01  1.18202E+03
   1  4  5  1.17657E-02  1.23137E+03
   1  5  5  4.81078E-04  1.28072E+03
   2  5  5  1.20110E-02  7.56800E+01
   2 30  0  1.78346E-04  3.31193E+01
   2 30 30  9.87810E-01  2.62261E+01
   3 30  0  3.41139E-06  4.96600E+01
   3 30 30  9.99997E-01  4.27700E+01
   4 30  0  3.17959E-06  4.93500E+01
   4 30 30  9.99997E-01  4.24600E+01
 *** RELAX:  Z = 38,  no. of shells = 13,  no. of transitions = 343
   1 1s1/2 2  1.61080E+04  2.20975E-02
   2 2s1/2 2  2.21900E+03  8.09140E-02
   3 2p1/2 2  2.01000E+03  4.06256E-02
   4 2p3/2 4  1.94300E+03  4.16189E-02
   5 3s1/2 2  3.61000E+02  2.04400E-01
   6 3p1/2 2  2.83000E+02  1.23161E-01
   7 3p3/2 4  2.73000E+02  1.25508E-01
   8 3d3/2 4  1.39000E+02  9.01051E-02
   9 3d5/2 6  1.37000E+02  9.07187E-02
  10 4s1/2 2  4.00000E+01  5.72573E-01
  11 4p1/2 2  2.30000E+01  3.88833E-01
  12 4p3/2 4  2.20000E+01  3.96957E-01
  17 5s1/2 2  5.69000E+00  2.06039E+00
   1  3  0  2.01262E-01  1.40980E+04
   1  4  0  3.86455E-01  1.41652E+04
   1  6  0  2.93724E-02  1.58252E+04
   1  7  0  5.72517E-02  1.58359E+04
   1  8  0  1.03471E-04  1.59689E+04
   1  9  0  1.47642E-04  1.59689E+04
   1 11  0  3.80545E-03  1.60385E+04
   1 12  0  7.27519E-03  1.60398E+04
   1  2  2  2.19164E-02  1.16668E+04
   1  2  3  2.45900E-02  1.18548E+04
   1  2  4  3.94917E-02  1.19245E+04
   1  2  5  6.72035E-03  1.35166E+04
   1  2  6  3.86748E-03  1.35866E+04
   1  2  7  6.17248E-03  1.35974E+04
   1  2  8  3.00465E-04  1.37220E+04
   1  2  9  3.82402E-04  1.37239E+04
   1  2 10  1.01513E-03  1.38205E+04
   1  2 11  4.89038E-04  1.38384E+04
   1  2 12  7.78046E-04  1.38397E+04
   1  2 17  1.27766E-04  1.38618E+04
   1  3  3  4.00268E-03  1.20428E+04
   1  3  4  9.11413E-02  1.21125E+04
   1  3  5  3.14354E-03  1.37046E+04
   1  3  6  1.15949E-03  1.37746E+04
   1  3  7  1.20840E-02  1.37854E+04
   1  3  8  4.00016E-04  1.39100E+04
   1  3  9  1.43612E-03  1.39119E+04
   1  3 10  4.60810E-04  1.40085E+04
   1  3 11  1.45377E-04  1.40264E+04
   1  3 12  1.48988E-03  1.40277E+04
   1  3 17  5.81528E-05  1.40498E+04
   1  4  4  4.88691E-02  1.21822E+04
   1  4  5  5.05765E-03  1.37743E+04
   1  4  6  1.20211E-02  1.38443E+04
   1  4  7  1.32293E-02  1.38551E+04
   1  4  8  1.75874E-03  1.39797E+04
   1  4  9  1.68915E-03  1.39816E+04
   1  4 10  7.41882E-04  1.40782E+04
   1  4 11  1.48552E-03  1.40961E+04
   1  4 12  1.63619E-03  1.40974E+04
   1  4 17  9.33963E-05  1.41195E+04
   1  5  5  5.08453E-04  1.53664E+04
   1  5  6  4.98730E-04  1.54364E+04
   1  5  7  7.94783E-04  1.54472E+04
   1  5  8  3.61258E-05  1.55718E+04
   1  5  9  4.49379E-05  1.55737E+04
   1  5 10  1.53316E-04  1.56703E+04
   1  5 11  6.34457E-05  1.56882E+04
   1  5 12  1.00451E-04  1.56895E+04
   1  5 17  1.93852E-05  1.57116E+04
   1  6  6  8.00282E-05  1.55064E+04
   1  6  7  1.60935E-03  1.55172E+04
   1  6  8  4.13311E-05  1.56418E+04
   1  6  9  1.51262E-04  1.56437E+04
   1  6 10  7.29901E-05  1.57403E+04
   1  6 11  2.02267E-05  1.57582E+04
   1  6 12  1.98743E-04  1.57595E+04
   1  6 17  8.79410E-06  1.57816E+04
   1  7  7  8.84013E-04  1.55279E+04
   1  7  8  1.87577E-04  1.56525E+04
   1  7  9  1.76285E-04  1.56545E+04
   1  7 10  1.15492E-04  1.57511E+04
   1  7 11  1.96254E-04  1.57690E+04
   1  7 12  2.18838E-04  1.57703E+04
   1  7 17  1.47629E-05  1.57924E+04
   1  8  9  1.85031E-05  1.57791E+04
   1  8 10  5.28648E-06  1.58757E+04
   1  8 11  5.28648E-06  1.58936E+04
   1  8 12  2.29095E-05  1.58949E+04
   1  8 17  8.81120E-07  1.59170E+04
   1  9  9  4.59420E-06  1.57810E+04
   1  9 10  6.43169E-06  1.58776E+04
   1  9 11  1.92951E-05  1.58955E+04
   1  9 12  2.20528E-05  1.58968E+04
   1  9 17  9.18841E-07  1.59189E+04
   1 10 10  9.55047E-06  1.59742E+04
   1 10 11  8.08142E-06  1.59921E+04
   1 10 12  1.24895E-05  1.59934E+04
   1 10 17  2.20400E-06  1.60155E+04
   1 11 11  8.20672E-07  1.60101E+04
   1 11 12  2.29790E-05  1.60113E+04
   1 11 17  8.20672E-07  1.60334E+04
   1 12 12  1.19272E-05  1.60126E+04
   1 12 17  1.49095E-06  1.60347E+04
   2  3  0  1.42440E-05  1.88000E+02
   2  4  0  8.55393E-05  2.57700E+02
   2  6  0  1.34140E-03  1.93644E+03
   2  7  0  2.36111E-03  1.94720E+03
   2  8  0  9.07693E-06  2.08050E+03
   2  9  0  1.35100E-05  2.08220E+03
   2 11  0  1.69321E-04  2.17163E+03
   2 12  0  3.00261E-04  2.17290E+03
   2  3 10  1.71475E-02  1.41610E+02
   2  3 11  1.05113E-02  1.59530E+02
   2  3 12  1.46117E-02  1.60800E+02
   2  3 17  2.10437E-03  1.82900E+02
   2  4  8  2.35463E-01  1.12770E+02
   2  4  9  3.36556E-01  1.14690E+02
   2  4 10  2.75232E-02  2.11310E+02
   2  4 11  1.13720E-02  2.29230E+02
   2  4 12  2.37029E-02  2.30500E+02
   2  4 17  3.42494E-03  2.52600E+02
   2  5  5  6.99334E-03  1.49946E+03
   2  5  6  1.34432E-02  1.56946E+03
   2  5  7  2.57968E-02  1.58025E+03
   2  5  8  1.90554E-02  1.70485E+03
   2  5  9  2.77049E-02  1.70677E+03
   2  5 10  1.85719E-03  1.80339E+03
   2  5 11  1.68746E-03  1.82131E+03
   2  5 12  3.22734E-03  1.82258E+03
   2  5 17  2.31720E-04  1.84468E+03
   2  6  6  1.31922E-04  1.63946E+03
   2  6  7  5.67221E-04  1.65025E+03
   2  6  8  3.61325E-04  1.77485E+03
   2  6  9  6.29282E-03  1.77677E+03
   2  6 10  1.50489E-03  1.87339E+03
   2  6 11  2.29416E-05  1.89131E+03
   2  6 12  6.82502E-05  1.89258E+03
   2  6 17  1.82957E-04  1.91468E+03
   2  7  7  6.41298E-04  1.66104E+03
   2  7  8  5.88660E-03  1.78564E+03
   2  7  9  4.14686E-03  1.78756E+03
   2  7 10  2.93661E-03  1.88418E+03
   2  7 11  6.93762E-05  1.90210E+03
   2  7 12  1.32922E-04  1.90337E+03
   2  7 17  3.57375E-04  1.92547E+03
   2  8  8  8.60887E-04  1.91024E+03
   2  8  9  3.70107E-02  1.91216E+03
   2  8 10  2.04819E-03  2.00878E+03
   2  8 11  5.96484E-05  2.02670E+03
   2  8 12  7.12346E-04  2.02797E+03
   2  8 17  2.48341E-04  2.05007E+03
   2  9  9  1.03391E-02  1.91408E+03
   2  9 10  2.98410E-03  2.01070E+03
   2  9 11  7.46167E-04  2.02862E+03
   2  9 12  5.20767E-04  2.02989E+03
   2  9 17  3.61895E-04  2.05199E+03
   2 10 10  1.19293E-04  2.10732E+03
   2 10 11  1.89266E-04  2.12524E+03
   2 10 12  3.61889E-04  2.12651E+03
   2 10 17  2.98234E-05  2.14861E+03
   2 11 11  1.03044E-06  2.14316E+03
   2 11 12  7.21323E-06  2.14443E+03
   2 11 17  2.06094E-05  2.16653E+03
   2 12 12  6.88239E-06  2.14570E+03
   2 12 17  4.41618E-05  2.16780E+03
   3  4  0  2.52670E-09  6.97000E+01
   3  5  0  3.19830E-03  1.64934E+03
   3  7  0  2.53380E-05  1.73830E+03
   3  8  0  2.23780E-02  1.87174E+03
   3 10  0  1.87380E-04  1.96571E+03
   3 12  0  6.35231E-07  1.98490E+03
   3  4 17  2.34175E-03  6.46000E+01
   3  5  5  1.83746E-03  1.31146E+03
   3  5  6  3.75582E-02  1.38146E+03
   3  5  7  3.44401E-03  1.39225E+03
   3  5  8  1.97718E-03  1.51685E+03
   3  5  9  5.20966E-03  1.51877E+03
   3  5 10  4.63740E-04  1.61539E+03
   3  5 11  3.55268E-03  1.63331E+03
   3  5 12  3.91941E-04  1.63458E+03
   3  5 17  5.82088E-05  1.65668E+03
   3  6  6  3.50677E-02  1.45146E+03
   3  6  7  1.16919E-01  1.46225E+03
   3  6  8  5.75226E-02  1.58685E+03
   3  6  9  1.05095E-01  1.58877E+03
   3  6 10  5.78382E-03  1.68539E+03
   3  6 11  7.80361E-03  1.70331E+03
   3  6 12  1.43835E-02  1.70458E+03
   3  6 17  7.35369E-04  1.72668E+03
   3  7  7  3.19371E-03  1.47304E+03
   3  7  8  7.11538E-02  1.59764E+03
   3  7  9  9.86226E-03  1.59956E+03
   3  7 10  4.65674E-04  1.69618E+03
   3  7 11  1.14014E-02  1.71410E+03
   3  7 12  6.81038E-04  1.71537E+03
   3  7 17  5.82084E-05  1.73747E+03
   3  8  8  6.08399E-02  1.72224E+03
   3  8  9  2.69924E-01  1.72416E+03
   3  8 10  3.16254E-04  1.82078E+03
   3  8 11  5.58213E-03  1.83870E+03
   3  8 12  8.39760E-03  1.83997E+03
   3  8 17  4.07457E-05  1.86207E+03
   3  9  9  1.28160E-02  1.72608E+03
   3  9 10  7.15999E-04  1.82270E+03
   3  9 11  9.43404E-03  1.84062E+03
   3  9 12  1.08074E-03  1.84189E+03
   3  9 17  8.92557E-05  1.86399E+03
   3 10 10  2.91038E-05  1.91932E+03
   3 10 11  5.49098E-04  1.93724E+03
   3 10 12  5.23880E-05  1.93851E+03
   3 10 17  7.76099E-06  1.96061E+03
   3 11 11  4.22971E-04  1.95516E+03
   3 11 12  1.40278E-03  1.95643E+03
   3 11 17  6.98494E-05  1.97853E+03
   3 12 12  9.51812E-05  1.95770E+03
   3 12 17  1.50289E-05  1.97980E+03
   4  5  0  4.16371E-03  1.58217E+03
   4  6  0  1.54100E-05  1.66140E+03
   4  7  0  1.46510E-05  1.67150E+03
   4  8  0  2.13350E-03  1.80477E+03
   4  9  0  2.00610E-02  1.80659E+03
   4 10  0  1.72440E-04  1.89601E+03
   4 11  0  3.08341E-07  1.91393E+03
   4 12  0  2.95621E-07  1.91520E+03
   4  5  5  2.11241E-03  1.24176E+03
   4  5  6  1.58126E-03  1.31176E+03
   4  5  7  4.17960E-02  1.32255E+03
   4  5  8  3.77536E-03  1.44715E+03
   4  5  9  4.05127E-03  1.44907E+03
   4  5 10  5.33216E-04  1.54569E+03
   4  5 11  1.75691E-04  1.56361E+03
   4  5 12  3.97558E-03  1.56488E+03
   4  5 17  6.53755E-05  1.58698E+03
   4  6  6  5.88381E-04  1.38176E+03
   4  6  7  6.75999E-02  1.39255E+03
   4  6  8  4.33520E-03  1.51715E+03
   4  6  9  3.96422E-02  1.51907E+03
   4  6 10  2.10434E-04  1.61569E+03
   4  6 11  1.28709E-04  1.63361E+03
   4  6 12  6.59891E-03  1.63488E+03
   4  6 17  2.65586E-05  1.65698E+03
   4  7  7  9.81055E-02  1.40334E+03
   4  7  8  8.98120E-02  1.52794E+03
